69, 131, 600, 304, 54, 35, 74, 156
60, 131, 686, 331, 66, 44, 55, 135
63, 128, 715, 330, 61, 57, 54, 107
48, 124, 637, 296, 58, 57, 52, 91
43, 105, 639, 287, 53, 55, 46, 65
42, 88, 657, 287, 53, 61, 69, 51
40, 69, 565, 262, 43, 112, 161, 48
30, 63, 519, 247, 44, 115, 176, 36
29, 61, 478, 254, 78, 116, 181, 33
31, 92, 481, 247, 83, 116, 184, 31
30, 90, 378, 238, 91, 114, 183, 30
31, 94, 354, 230, 92, 65, 123, 29
31, 95, 349, 228, 125, 50, 103, 29
32, 96, 336, 195, 111, 56, 95, 28
32, 89, 269, 200, 109, 60, 113, 31
43, 156, 296, 209, 103, 58, 126, 32
43, 157, 293, 204, 102, 51, 116, 31
42, 159, 316, 314, 69, 49, 131, 30
43, 160, 317, 295, 66, 41, 132, 32
42, 149, 328, 290, 71, 44, 117, 31
44, 120, 444, 319, 76, 47, 88, 68
47, 138, 481, 354, 84, 55, 134, 72
50, 141, 483, 279, 82, 56, 118, 74
50, 146, 489, 290, 87, 58, 117, 73
49, 146, 469, 289, 106, 51, 113, 73
39, 118, 346, 242, 109, 48, 113, 39
37, 127, 292, 200, 105, 42, 49, 31
32, 132, 287, 207, 100, 42, 49, 27
35, 137, 267, 272, 146, 53, 48, 30
35, 144, 295, 277, 146, 53, 46, 29
34, 142, 265, 278, 150, 54, 40, 28
28, 116, 242, 271, 154, 52, 36, 27
28, 103, 203, 251, 159, 52, 33, 27
32, 112, 215, 229, 146, 49, 37, 29
34, 128, 172, 248, 143, 49, 36, 28
37, 140, 169, 274, 142, 48, 35, 29
38, 145, 164, 276, 144, 48, 35, 29
38, 151, 162, 271, 138, 46, 34, 30
33, 138, 114, 353, 153, 46, 26, 27
31, 112, 109, 340, 151, 44, 25, 29
31, 119, 103, 323, 148, 45, 27, 28
34, 116, 105, 341, 169, 59, 33, 33
35, 117, 98, 360, 180, 63, 36, 32
33, 115, 89, 246, 147, 56, 35, 32
34, 128, 76, 304, 163, 61, 37, 32
30, 103, 74, 309, 164, 61, 35, 33
27, 92, 67, 286, 149, 55, 31, 27
26, 87, 78, 318, 175, 59, 38, 35
29, 82, 75, 301, 186, 62, 45, 36
34, 93, 76, 271, 198, 66, 70, 76
37, 105, 75, 262, 198, 69, 72, 81
35, 105, 76, 279, 241, 66, 75, 83
35, 100, 71, 218, 227, 60, 72, 83
35, 99, 68, 214, 218, 55, 69, 82
38, 79, 61, 196, 195, 46, 43, 49
47, 93, 65, 196, 202, 50, 42, 44
51, 112, 71, 175, 159, 45, 35, 42
52, 117, 72, 167, 156, 46, 32, 37
54, 117, 98, 181, 160, 49, 29, 36
48, 111, 101, 152, 156, 49, 29, 34
39, 88, 98, 153, 141, 38, 26, 30
34, 64, 98, 164, 131, 42, 24, 29
33, 54, 97, 195, 122, 41, 24, 29
29, 47, 73, 197, 116, 36, 23, 28
30, 45, 77, 219, 114, 38, 23, 27
29, 42, 78, 218, 115, 38, 24, 26
29, 41, 74, 203, 109, 37, 24, 24
26, 36, 79, 167, 107, 37, 22, 25
27, 38, 88, 155, 132, 47, 26, 24
23, 31, 96, 136, 130, 46, 23, 22
24, 33, 100, 133, 129, 47, 82, 25
24, 31, 106, 155, 121, 49, 119, 26
31, 44, 152, 156, 111, 51, 130, 29
33, 46, 179, 156, 66, 43, 131, 30
36, 51, 247, 154, 67, 51, 153, 34
46, 55, 269, 187, 74, 72, 172, 56
48, 57, 297, 176, 71, 72, 161, 63
46, 56, 343, 185, 77, 72, 153, 64
47, 68, 438, 245, 78, 74, 155, 79
49, 78, 452, 268, 97, 78, 180, 82
47, 80, 458, 271, 95, 82, 159, 76
46, 84, 463, 272, 93, 80, 151, 71
46, 86, 449, 265, 88, 80, 154, 69
46, 86, 464, 221, 83, 79, 152, 52
43, 77, 440, 198, 62, 82, 116, 79
34, 78, 424, 170, 51, 66, 93, 76
34, 71, 400, 167, 54, 68, 91, 77
36, 71, 393, 163, 51, 82, 94, 79
36, 68, 312, 153, 54, 82, 97, 88
46, 74, 366, 156, 46, 74, 93, 78
50, 76, 382, 153, 48, 70, 125, 78
69, 80, 406, 153, 47, 89, 149, 79
75, 87, 461, 162, 45, 84, 151, 78
79, 89, 498, 198, 45, 93, 150, 85
76, 87, 494, 203, 50, 94, 138, 75
78, 84, 486, 205, 52, 95, 110, 76
64, 84, 476, 207, 56, 101, 137, 91
58, 81, 413, 213, 59, 94, 139, 95
54, 79, 322, 178, 57, 87, 141, 81
67, 78, 270, 168, 53, 104, 146, 91
65, 78, 319, 186, 57, 108, 148, 87
71, 82, 323, 192, 52, 101, 117, 225
72, 82, 371, 185, 50, 102, 123, 237
74, 78, 370, 191, 50, 108, 121, 247
63, 80, 379, 175, 49, 90, 117, 251
59, 80, 360, 159, 41, 82, 112, 253
54, 93, 414, 149, 40, 62, 88, 140
51, 87, 373, 136, 39, 66, 91, 115
44, 84, 365, 116, 39, 64, 94, 92
49, 81, 331, 115, 37, 69, 102, 72
48, 78, 319, 114, 39, 70, 105, 73
48, 57, 226, 116, 38, 74, 104, 72
45, 58, 201, 110, 37, 85, 116, 72
59, 60, 225, 110, 41, 102, 125, 72
53, 55, 214, 107, 43, 99, 125, 67
55, 56, 238, 88, 42, 101, 129, 62
52, 53, 267, 125, 42, 99, 128, 62
55, 51, 266, 133, 45, 99, 102, 66
44, 49, 240, 133, 38, 90, 96, 65
43, 54, 239, 136, 35, 94, 86, 63
40, 52, 178, 139, 33, 93, 76, 58
39, 48, 112, 97, 34, 93, 75, 47
35, 46, 97, 87, 29, 77, 69, 37
30, 43, 83, 79, 30, 70, 63, 33
28, 38, 76, 72, 30, 65, 82, 33
27, 36, 59, 59, 28, 66, 98, 34
26, 37, 54, 45, 24, 81, 99, 32
24, 37, 72, 35, 28, 120, 166, 35
37, 37, 86, 33, 31, 114, 169, 33
39, 34, 86, 32, 42, 120, 180, 33
41, 34, 90, 43, 61, 123, 176, 32
41, 31, 88, 44, 62, 114, 177, 32
41, 31, 73, 136, 64, 76, 120, 27
36, 37, 107, 281, 183, 92, 149, 40
35, 38, 126, 305, 197, 88, 197, 43
35, 39, 176, 308, 196, 93, 230, 42
39, 57, 265, 311, 199, 97, 280, 46
39, 65, 407, 291, 200, 99, 282, 47
35, 65, 411, 224, 108, 81, 265, 38
35, 71, 475, 231, 101, 81, 252, 39
36, 79, 468, 233, 98, 106, 293, 80
87, 70, 446, 239, 93, 104, 273, 94
90, 66, 343, 233, 92, 104, 280, 98
94, 83, 335, 172, 86, 106, 281, 101
138, 90, 253, 116, 57, 118, 324, 137
178, 85, 262, 122, 52, 90, 299, 137
171, 107, 283, 109, 49, 86, 287, 138
182, 109, 266, 103, 47, 84, 284, 138
182, 96, 267, 100, 43, 82, 301, 149
158, 89, 269, 98, 41, 85, 333, 125
113, 87, 251, 67, 38, 82, 305, 106
199, 87, 199, 57, 34, 84, 297, 108
203, 104, 198, 53, 32, 85, 294, 111
227, 112, 188, 49, 31, 86, 314, 119
229, 116, 154, 33, 27, 57, 264, 114
232, 122, 142, 32, 28, 58, 264, 113
314, 115, 121, 29, 28, 54, 260, 127
370, 123, 158, 26, 29, 56, 277, 134
375, 176, 161, 26, 28, 56, 233, 149
377, 183, 160, 26, 30, 61, 242, 152
377, 182, 158, 25, 30, 58, 240, 150
290, 177, 175, 26, 31, 59, 253, 137
258, 180, 165, 24, 30, 66, 262, 160
281, 121, 157, 23, 30, 64, 269, 133
290, 113, 154, 22, 28, 65, 211, 136
323, 132, 166, 22, 28, 68, 219, 147
349, 137, 157, 24, 27, 68, 211, 144
369, 114, 120, 27, 32, 75, 212, 282
347, 117, 129, 30, 33, 75, 221, 294
346, 108, 126, 33, 35, 73, 213, 299
373, 100, 140, 34, 37, 83, 219, 305
376, 106, 153, 34, 37, 82, 210, 317
331, 124, 171, 34, 33, 72, 199, 196
396, 133, 173, 35, 33, 71, 196, 212
411, 136, 181, 35, 33, 73, 208, 204
363, 124, 174, 33, 28, 58, 186, 186
313, 112, 156, 33, 27, 58, 222, 164
305, 118, 127, 31, 28, 54, 208, 145
297, 108, 120, 28, 28, 58, 257, 110
263, 105, 111, 28, 27, 53, 250, 102
282, 108, 109, 34, 29, 53, 258, 135
279, 106, 107, 32, 29, 54, 231, 131
273, 75, 108, 33, 26, 51, 231, 130
158, 69, 99, 31, 27, 47, 168, 109
210, 111, 94, 29, 26, 42, 146, 114
177, 118, 73, 22, 24, 45, 136, 74
181, 139, 81, 25, 25, 45, 161, 137
196, 142, 76, 22, 26, 45, 148, 147
197, 140, 73, 23, 23, 38, 138, 149
194, 114, 94, 25, 23, 34, 133, 147
194, 103, 87, 25, 24, 31, 137, 148
201, 79, 80, 23, 25, 45, 128, 93
188, 85, 87, 24, 24, 43, 123, 76
187, 90, 95, 26, 27, 45, 165, 107
126, 96, 75, 25, 26, 45, 171, 107
116, 100, 71, 24, 25, 43, 174, 108
184, 98, 67, 24, 25, 39, 187, 110
185, 87, 62, 23, 26, 43, 219, 111
181, 85, 66, 22, 24, 42, 188, 73
183, 80, 72, 22, 25, 48, 219, 73
187, 73, 74, 23, 25, 50, 237, 71
110, 69, 73, 24, 23, 43, 215, 113
184, 59, 69, 25, 24, 42, 187, 130
185, 54, 55, 24, 25, 55, 220, 131
193, 57, 59, 24, 25, 52, 201, 131
192, 57, 58, 25, 26, 52, 171, 129
187, 58, 59, 24, 28, 51, 170, 87
108, 63, 62, 24, 25, 51, 167, 55
95, 60, 61, 24, 24, 39, 129, 50
83, 45, 43, 23, 25, 49, 193, 92
140, 48, 62, 21, 25, 50, 201, 107
194, 48, 61, 23, 25, 52, 213, 113
198, 48, 63, 22, 25, 51, 214, 112
203, 54, 69, 23, 25, 51, 219, 114
212, 56, 69, 25, 24, 48, 209, 86
178, 54, 54, 24, 24, 46, 217, 71
118, 53, 54, 22, 25, 44, 207, 57
110, 48, 48, 23, 27, 44, 205, 56
175, 43, 38, 21, 26, 50, 213, 74
161, 37, 35, 20, 25, 40, 152, 66
164, 32, 29, 20, 26, 38, 136, 64
174, 33, 27, 20, 25, 42, 160, 70
175, 33, 43, 20, 24, 46, 166, 72
195, 37, 48, 21, 23, 40, 177, 72
198, 43, 50, 22, 23, 43, 194, 75
225, 50, 51, 24, 23, 56, 230, 86
221, 59, 52, 24, 23, 56, 239, 82
222, 59, 66, 24, 24, 53, 250, 83
241, 58, 66, 25, 24, 56, 241, 83
247, 55, 68, 23, 26, 60, 240, 83
224, 51, 71, 23, 27, 58, 313, 72
239, 43, 71, 24, 28, 58, 309, 87
239, 42, 47, 24, 28, 61, 297, 87
202, 41, 42, 23, 28, 57, 286, 82
219, 47, 45, 25, 26, 53, 281, 83
222, 45, 62, 24, 25, 56, 292, 86
211, 43, 65, 24, 23, 59, 296, 74
211, 45, 65, 24, 24, 57, 301, 71
160, 44, 65, 24, 24, 58, 301, 58
111, 36, 60, 24, 25, 74, 357, 51
92, 37, 39, 25, 26, 77, 262, 41
73, 34, 31, 25, 25, 73, 241, 38
59, 31, 29, 25, 25, 73, 236, 36
51, 30, 29, 24, 25, 73, 231, 33
47, 27, 28, 24, 25, 58, 163, 33
42, 28, 28, 24, 24, 43, 147, 36
46, 27, 28, 22, 25, 41, 149, 34
43, 26, 29, 21, 23, 40, 147, 31
48, 28, 47, 24, 23, 39, 150, 33
55, 29, 51, 23, 23, 35, 105, 33
63, 40, 55, 24, 23, 32, 100, 34
55, 41, 57, 23, 22, 28, 87, 34
62, 46, 66, 24, 22, 29, 91, 38
170, 47, 56, 23, 22, 28, 81, 61
173, 54, 56, 23, 21, 29, 83, 67
177, 49, 51, 22, 19, 33, 145, 68
183, 55, 51, 23, 20, 34, 147, 111
181, 51, 40, 22, 21, 33, 144, 113
91, 52, 57, 21, 22, 35, 150, 105
85, 45, 58, 21, 22, 34, 150, 109
77, 42, 59, 21, 24, 30, 92, 107
64, 42, 59, 21, 23, 30, 85, 63
60, 42, 62, 22, 21, 29, 79, 58
53, 38, 47, 23, 23, 25, 63, 52
46, 38, 57, 28, 31, 27, 41, 32
34, 38, 69, 30, 31, 27, 29, 31
32, 37, 83, 30, 32, 26, 27, 25
31, 37, 152, 46, 33, 25, 25, 24
31, 37, 186, 46, 31, 26, 25, 23
27, 39, 207, 48, 26, 23, 27, 19
26, 39, 219, 50, 25, 22, 42, 21
26, 32, 238, 55, 25, 23, 69, 22
25, 36, 226, 99, 27, 27, 89, 22
25, 43, 213, 114, 43, 32, 92, 24
29, 43, 206, 121, 45, 37, 92, 25
29, 43, 203, 124, 49, 38, 93, 26
29, 46, 190, 139, 53, 40, 78, 26
31, 48, 187, 122, 55, 41, 55, 25
33, 44, 177, 110, 72, 44, 72, 25
29, 41, 160, 104, 74, 53, 77, 24
29, 40, 144, 100, 72, 52, 77, 24
28, 35, 123, 75, 72, 51, 76, 23
25, 25, 74, 48, 71, 51, 76, 23
25, 23, 57, 42, 42, 45, 56, 24
27, 23, 52, 36, 40, 30, 47, 25
27, 24, 41, 31, 37, 30, 32, 23
27, 25, 37, 30, 33, 28, 26, 23
27, 26, 37, 28, 31, 26, 25, 23
24, 25, 29, 29, 31, 32, 76, 24
22, 27, 31, 26, 24, 28, 80, 22
24, 27, 30, 25, 24, 28, 80, 24
23, 26, 31, 26, 29, 29, 81, 23
23, 25, 29, 28, 29, 28, 83, 23
23, 23, 29, 27, 29, 22, 41, 23
24, 23, 27, 26, 29, 25, 33, 24
22, 22, 26, 26, 30, 24, 32, 22
22, 24, 22, 24, 25, 23, 29, 24
22, 26, 22, 21, 26, 24, 26, 25
24, 26, 22, 22, 25, 26, 25, 24
23, 26, 20, 21, 24, 24, 25, 26
23, 28, 22, 22, 25, 24, 23, 26
22, 26, 21, 22, 25, 25, 25, 26
23, 26, 22, 24, 23, 24, 23, 27
23, 26, 22, 23, 24, 22, 23, 24
22, 25, 24, 25, 24, 23, 21, 22
23, 24, 25, 25, 23, 23, 21, 23
25, 23, 25, 25, 23, 24, 20, 21
25, 23, 24, 23, 23, 24, 19, 21
22, 23, 24, 26, 23, 23, 20, 22
25, 23, 24, 70, 25, 22, 21, 22
24, 24, 25, 108, 27, 22, 21, 23
22, 23, 26, 114, 28, 21, 20, 23
22, 22, 25, 114, 29, 22, 21, 22
22, 22, 27, 114, 30, 23, 22, 23
19, 22, 26, 94, 28, 22, 21, 25
20, 21, 24, 48, 26, 22, 21, 23
21, 23, 24, 32, 25, 22, 21, 24
21, 23, 24, 30, 24, 21, 22, 23
21, 21, 21, 31, 24, 20, 21, 23
22, 21, 23, 27, 23, 22, 23, 22
21, 21, 21, 26, 21, 24, 23, 22
21, 21, 24, 25, 21, 25, 25, 21
21, 23, 24, 26, 22, 25, 23, 22
23, 24, 26, 23, 22, 25, 25, 22
22, 24, 24, 23, 22, 24, 23, 21
23, 23, 26, 23, 23, 23, 22, 24
24, 21, 23, 22, 27, 22, 19, 24
24, 22, 23, 22, 23, 22, 22, 24
21, 21, 23, 22, 25, 22, 19, 25
22, 21, 24, 23, 27, 22, 20, 25
21, 23, 24, 21, 25, 23, 20, 22
21, 24, 24, 24, 23, 21, 20, 21
20, 23, 24, 24, 26, 22, 19, 20
23, 24, 25, 26, 24, 22, 21, 18
23, 25, 23, 25, 22, 23, 20, 20
23, 24, 23, 26, 24, 23, 20, 20
22, 24, 23, 24, 23, 25, 20, 21
21, 25, 22, 24, 23, 24, 19, 21
18, 24, 22, 22, 24, 24, 19, 23
19, 24, 22, 23, 24, 25, 21, 22
23, 26, 22, 23, 23, 24, 20, 22
23, 25, 23, 23, 23, 22, 20, 22
24, 23, 22, 24, 21, 23, 21, 23
24, 26, 26, 24, 21, 22, 21, 23
24, 25, 27, 25, 23, 21, 20, 23
20, 24, 25, 24, 23, 22, 22, 22
19, 23, 25, 23, 24, 22, 23, 22
19, 25, 27, 24, 24, 21, 22, 22
17, 23, 23, 22, 26, 22, 25, 22
19, 25, 23, 20, 25, 22, 24, 23
21, 25, 23, 22, 27, 22, 24, 23
22, 26, 24, 21, 27, 22, 25, 24
22, 24, 23, 22, 27, 23, 25, 23
23, 26, 22, 22, 25, 22, 21, 23
23, 25, 24, 22, 26, 22, 21, 22
24, 24, 24, 21, 24, 23, 21, 24
24, 24, 20, 21, 21, 22, 20, 23
24, 26, 23, 21, 21, 20, 20, 22
25, 23, 26, 26, 25, 24, 23, 22
23, 22, 24, 27, 25, 24, 23, 21
21, 22, 25, 28, 24, 22, 23, 21
21, 22, 27, 30, 23, 24, 22, 20
22, 20, 25, 29, 24, 26, 24, 22
22, 21, 25, 26, 21, 22, 22, 20
22, 22, 23, 26, 20, 21, 24, 25
22, 23, 23, 28, 21, 22, 24, 22
23, 22, 22, 26, 23, 21, 25, 24
23, 21, 23, 26, 22, 20, 22, 25
22, 20, 22, 24, 22, 21, 23, 25
21, 20, 23, 24, 23, 21, 24, 22
21, 19, 22, 20, 23, 20, 24, 22
21, 19, 23, 20, 22, 21, 24, 21
19, 20, 24, 21, 23, 21, 25, 19
19, 24, 24, 21, 22, 20, 25, 21
20, 23, 24, 20, 24, 22, 24, 22
23, 25, 25, 22, 23, 22, 24, 23
21, 24, 23, 21, 25, 23, 24, 22
24, 25, 25, 21, 24, 24, 24, 24
25, 22, 26, 21, 25, 24, 26, 22
23, 24, 25, 20, 22, 23, 26, 22
22, 23, 24, 20, 21, 25, 24, 23
25, 23, 26, 20, 22, 23, 24, 24
21, 25, 24, 19, 22, 23, 22, 22
21, 24, 23, 20, 22, 23, 19, 22
22, 23, 24, 21, 23, 23, 20, 23
19, 23, 26, 22, 22, 21, 21, 21
19, 22, 25, 23, 21, 22, 21, 21
21, 22, 25, 24, 21, 23, 21, 21
21, 23, 23, 24, 22, 23, 21, 20
20, 24, 25, 25, 23, 23, 20, 21
21, 26, 25, 24, 23, 22, 20, 23
18, 27, 24, 23, 23, 22, 20, 22
22, 26, 26, 23, 24, 21, 22, 25
22, 26, 26, 23, 24, 21, 23, 25
22, 26, 25, 25, 23, 21, 22, 25
22, 24, 24, 22, 23, 21, 21, 23
24, 25, 26, 22, 22, 24, 22, 24
21, 25, 25, 22, 22, 25, 24, 22
19, 25, 25, 24, 22, 24, 23, 21
21, 24, 23, 24, 21, 23, 22, 19
20, 25, 26, 24, 22, 22, 22, 20
19, 25, 24, 27, 25, 20, 21, 19
19, 24, 22, 27, 24, 21, 18, 20
19, 24, 23, 26, 25, 20, 19, 22
17, 23, 26, 26, 25, 22, 22, 23
17, 24, 24, 27, 25, 24, 22, 25
20, 25, 23, 25, 22, 24, 23, 26
20, 24, 22, 25, 23, 22, 22, 27
20, 24, 26, 23, 23, 23, 22, 27
20, 23, 23, 22, 23, 24, 22, 25
21, 21, 26, 21, 25, 21, 23, 22
20, 22, 28, 21, 25, 24, 23, 22
20, 21, 28, 20, 23, 25, 24, 21
20, 23, 27, 21, 23, 25, 23, 21
23, 24, 26, 21, 23, 25, 22, 24
22, 25, 23, 22, 20, 26, 21, 23
22, 22, 22, 21, 19, 23, 18, 21
22, 23, 22, 23, 19, 22, 18, 20
23, 23, 21, 23, 19, 20, 20, 20
20, 24, 22, 22, 19, 19, 21, 19
20, 23, 21, 20, 21, 20, 21, 21
21, 24, 22, 25, 20, 22, 22, 22
23, 25, 21, 24, 22, 23, 22, 25
25, 23, 22, 26, 23, 24, 22, 23
25, 21, 23, 27, 23, 23, 21, 23
25, 22, 24, 27, 22, 24, 23, 23
24, 23, 23, 23, 23, 22, 24, 23
23, 22, 23, 21, 24, 20, 25, 21
20, 24, 22, 19, 22, 21, 24, 22
21, 25, 21, 19, 23, 23, 24, 21
20, 25, 23, 20, 23, 24, 23, 20
21, 25, 22, 22, 23, 24, 24, 22
20, 25, 24, 21, 20, 25, 22, 23
19, 24, 25, 22, 19, 26, 22, 23
24, 24, 28, 22, 20, 24, 22, 25
23, 25, 26, 24, 21, 22, 23, 26
22, 25, 26, 22, 19, 24, 20, 24
24, 25, 25, 22, 23, 22, 23, 23
24, 26, 23, 20, 26, 21, 22, 23
21, 25, 20, 21, 25, 22, 22, 23
22, 26, 21, 20, 25, 22, 22, 20
22, 27, 23, 22, 25, 21, 24, 22
22, 25, 24, 24, 23, 21, 22, 23
24, 23, 25, 23, 22, 22, 21, 22
23, 24, 26, 23, 22, 22, 21, 23
22, 23, 26, 23, 22, 21, 21, 23
23, 23, 25, 22, 23, 21, 20, 24
22, 23, 25, 22, 23, 22, 20, 24
21, 24, 23, 24, 23, 20, 22, 25
22, 23, 23, 23, 24, 19, 23, 24
22, 23, 22, 22, 24, 22, 24, 25
21, 21, 23, 22, 23, 22, 23, 22
20, 22, 23, 21, 22, 22, 23, 21
20, 21, 26, 20, 21, 24, 21, 21
20, 24, 26, 20, 22, 26, 22, 19
22, 23, 26, 21, 22, 23, 19, 20
22, 23, 26, 21, 24, 23, 20, 19
23, 22, 25, 20, 24, 22, 22, 19
23, 23, 23, 19, 25, 22, 23, 19
23, 20, 24, 21, 24, 22, 23, 21
20, 21, 24, 24, 24, 22, 24, 23
21, 21, 23, 23, 22, 22, 22, 24
22, 21, 24, 24, 22, 22, 24, 24
21, 22, 23, 24, 22, 22, 22, 24
22, 26, 22, 23, 23, 21, 21, 24
23, 26, 22, 19, 23, 22, 21, 22
23, 26, 23, 22, 22, 23, 22, 20
23, 27, 22, 21, 22, 24, 18, 23
22, 27, 25, 22, 23, 24, 19, 23
22, 44, 77, 24, 23, 24, 18, 23
24, 49, 92, 25, 23, 25, 18, 24
28, 55, 94, 23, 25, 24, 18, 25
28, 56, 95, 26, 26, 23, 19, 23
29, 58, 97, 24, 25, 22, 21, 24
29, 46, 67, 22, 25, 24, 24, 24
26, 42, 45, 23, 24, 23, 23, 24
23, 38, 45, 23, 23, 23, 24, 24
23, 38, 42, 22, 24, 24, 24, 22
21, 34, 35, 24, 22, 26, 22, 20
22, 34, 30, 24, 22, 25, 21, 22
23, 32, 29, 23, 21, 24, 22, 21
22, 29, 27, 23, 20, 25, 20, 20
22, 36, 36, 24, 20, 24, 21, 21
22, 38, 38, 22, 21, 22, 21, 23
21, 49, 38, 26, 21, 22, 22, 22
20, 79, 43, 64, 26, 26, 21, 21
34, 175, 101, 171, 169, 67, 32, 27
34, 186, 108, 202, 213, 78, 34, 29
34, 192, 109, 209, 223, 79, 36, 27
38, 203, 124, 218, 233, 82, 37, 28
39, 214, 155, 233, 245, 83, 39, 28
32, 159, 157, 180, 186, 56, 31, 23
32, 152, 163, 162, 143, 43, 28, 24
33, 161, 166, 166, 152, 49, 27, 25
31, 151, 166, 156, 137, 55, 26, 24
32, 146, 139, 138, 130, 97, 27, 26
33, 181, 122, 211, 181, 102, 28, 25
35, 189, 114, 204, 185, 138, 31, 24
35, 179, 109, 200, 170, 139, 30, 25
36, 175, 95, 201, 173, 138, 30, 25
33, 157, 94, 193, 170, 113, 28, 26
28, 98, 68, 104, 111, 112, 28, 27
26, 65, 56, 106, 96, 63, 24, 27
24, 55, 54, 96, 93, 54, 26, 26
27, 65, 56, 125, 96, 47, 26, 27
28, 74, 77, 138, 105, 47, 25, 24
29, 77, 79, 161, 144, 47, 26, 25
27, 79, 78, 156, 149, 44, 27, 23
27, 81, 80, 165, 152, 57, 29, 26
25, 71, 79, 166, 151, 64, 27, 24
27, 79, 59, 198, 165, 74, 29, 25
27, 80, 54, 185, 140, 70, 26, 24
28, 79, 57, 187, 151, 76, 31, 25
29, 79, 52, 185, 148, 67, 29, 23
27, 76, 49, 184, 148, 61, 32, 24
25, 48, 39, 135, 115, 45, 30, 23
25, 40, 41, 127, 107, 46, 32, 23
24, 36, 40, 156, 100, 35, 28, 21
25, 46, 60, 161, 108, 41, 29, 21
26, 54, 71, 160, 107, 40, 28, 19
25, 60, 77, 200, 129, 39, 29, 21
27, 64, 94, 278, 134, 40, 32, 22
29, 69, 109, 288, 138, 47, 32, 23
28, 71, 118, 289, 136, 44, 31, 22
28, 67, 122, 280, 132, 44, 30, 23
29, 69, 185, 269, 119, 45, 30, 21
27, 66, 185, 220, 127, 42, 28, 24
25, 61, 185, 200, 104, 34, 27, 24
26, 48, 175, 193, 97, 29, 29, 24
25, 44, 171, 194, 105, 33, 30, 25
24, 36, 104, 174, 96, 30, 29, 27
24, 37, 88, 127, 66, 27, 27, 25
25, 35, 67, 100, 65, 29, 27, 24
24, 34, 62, 95, 79, 32, 26, 25
25, 33, 52, 89, 71, 30, 24, 23
24, 26, 32, 72, 69, 29, 25, 23
23, 25, 31, 71, 72, 30, 23, 21
22, 25, 29, 51, 70, 29, 23, 21
23, 25, 31, 39, 49, 26, 21, 21
22, 25, 30, 30, 39, 25, 24, 22
22, 28, 29, 30, 35, 26, 22, 22
21, 27, 30, 24, 28, 24, 23, 21
21, 26, 28, 24, 27, 24, 25, 22
20, 25, 25, 23, 25, 24, 26, 24
20, 27, 27, 24, 25, 23, 24, 23
22, 25, 26, 23, 25, 24, 25, 22
22, 27, 25, 23, 25, 24, 24, 22
22, 26, 26, 22, 23, 23, 23, 21
21, 25, 27, 23, 22, 24, 22, 22
21, 23, 25, 21, 23, 24, 21, 22
19, 22, 24, 23, 21, 21, 19, 20
22, 20, 24, 24, 20, 22, 22, 20
22, 21, 23, 24, 24, 22, 22, 19
21, 23, 22, 23, 24, 21, 22, 17
20, 22, 21, 24, 25, 20, 22, 17
22, 23, 21, 25, 25, 21, 22, 20
20, 22, 22, 24, 24, 20, 20, 22
20, 21, 22, 25, 22, 22, 19, 24
20, 21, 23, 25, 22, 22, 20, 23
21, 20, 24, 25, 20, 23, 20, 26
21, 21, 25, 23, 20, 22, 23, 25
21, 23, 26, 25, 21, 23, 25, 24
21, 22, 25, 22, 23, 22, 24, 21
22, 21, 26, 23, 24, 20, 24, 22
22, 22, 25, 23, 24, 20, 25, 22
22, 21, 23, 21, 24, 21, 23, 23
23, 21, 23, 21, 23, 24, 20, 24
25, 23, 23, 21, 22, 23, 21, 25
24, 24, 21, 21, 20, 24, 20, 25
25, 23, 23, 21, 23, 23, 20, 24
26, 24, 23, 22, 27, 23, 20, 24
23, 24, 22, 24, 28, 20, 22, 23
23, 24, 23, 26, 29, 22, 22, 23
23, 24, 23, 44, 49, 25, 23, 23
24, 25, 26, 50, 66, 30, 23, 23
24, 23, 28, 80, 75, 31, 23, 24
24, 29, 32, 90, 82, 31, 22, 24
25, 33, 32, 92, 93, 34, 24, 25
26, 34, 32, 87, 89, 33, 24, 24
25, 34, 30, 86, 79, 32, 23, 24
24, 36, 30, 62, 71, 33, 24, 25
24, 31, 26, 44, 67, 31, 23, 25
25, 28, 27, 43, 54, 30, 24, 26
24, 27, 27, 38, 45, 31, 24, 26
23, 26, 26, 35, 44, 29, 25, 24
23, 24, 25, 28, 42, 27, 23, 24
24, 24, 26, 26, 36, 29, 23, 24
21, 20, 24, 22, 30, 26, 20, 21
20, 19, 24, 22, 29, 25, 20, 20
19, 19, 23, 19, 26, 22, 20, 22
20, 20, 22, 21, 26, 23, 21, 22
21, 18, 22, 23, 34, 24, 22, 24
23, 21, 22, 23, 33, 24, 23, 27
23, 22, 20, 24, 32, 24, 22, 26
24, 20, 20, 25, 32, 25, 24, 26
24, 22, 21, 24, 33, 25, 24, 26
23, 23, 20, 24, 25, 23, 23, 23
23, 24, 22, 22, 23, 23, 26, 20
23, 23, 22, 21, 24, 21, 25, 21
24, 24, 24, 22, 24, 22, 24, 19
24, 23, 22, 24, 23, 21, 22, 20
22, 25, 23, 22, 23, 22, 22, 19
22, 22, 23, 24, 24, 23, 21, 19
23, 26, 25, 25, 25, 23, 21, 19
22, 26, 25, 24, 23, 23, 21, 20
21, 27, 26, 22, 23, 24, 21, 19
22, 25, 28, 20, 23, 24, 24, 21
23, 26, 29, 19, 24, 23, 22, 20
23, 22, 27, 19, 22, 23, 23, 21
24, 23, 27, 20, 22, 23, 23, 21
25, 21, 27, 23, 22, 22, 23, 20
24, 22, 25, 22, 23, 22, 20, 21
24, 23, 25, 26, 21, 22, 19, 21
24, 24, 25, 25, 21, 22, 20, 21
24, 22, 23, 25, 22, 22, 20, 22
23, 23, 24, 23, 22, 22, 20, 22
24, 23, 25, 24, 21, 23, 22, 24
24, 22, 24, 23, 23, 23, 23, 24
24, 21, 24, 24, 24, 24, 24, 25
22, 20, 25, 24, 24, 24, 24, 26
23, 21, 24, 23, 24, 24, 25, 27
22, 22, 23, 25, 22, 22, 24, 26
22, 22, 24, 22, 21, 20, 23, 25
22, 23, 23, 22, 22, 22, 22, 25
22, 26, 22, 22, 20, 23, 22, 23
24, 24, 22, 23, 20, 23, 22, 23
23, 23, 21, 19, 21, 24, 22, 21
23, 23, 22, 20, 19, 25, 21, 21
22, 23, 22, 19, 18, 25, 20, 22
23, 21, 24, 19, 19, 23, 21, 23
21, 23, 25, 19, 20, 23, 22, 21
21, 22, 24, 20, 20, 24, 20, 22
21, 22, 25, 19, 21, 24, 20, 22
21, 21, 25, 18, 22, 22, 22, 21
22, 22, 25, 18, 23, 25, 22, 20
21, 22, 24, 19, 22, 26, 21, 21
21, 25, 26, 19, 22, 24, 21, 23
22, 25, 23, 20, 22, 25, 22, 24
22, 26, 25, 23, 23, 25, 22, 24
23, 25, 24, 24, 23, 22, 22, 23
23, 26, 24, 24, 25, 20, 22, 25
25, 23, 23, 24, 25, 23, 25, 24
24, 23, 23, 24, 24, 23, 24, 23
23, 21, 23, 24, 23, 24, 24, 24
23, 25, 22, 23, 22, 23, 22, 23
23, 23, 23, 22, 20, 24, 21, 20
21, 23, 24, 22, 21, 22, 21, 21
21, 23, 23, 22, 22, 21, 21, 21
21, 22, 24, 21, 21, 22, 21, 21
21, 19, 22, 21, 21, 21, 23, 21
21, 20, 24, 23, 25, 21, 23, 22
21, 22, 24, 23, 25, 23, 22, 22
21, 21, 25, 24, 25, 23, 22, 22
22, 23, 26, 25, 26, 21, 22, 23
21, 25, 27, 25, 27, 23, 23, 26
22, 25, 27, 21, 25, 22, 23, 26
22, 25, 28, 22, 25, 21, 23, 25
22, 25, 28, 23, 23, 20, 23, 26
21, 23, 26, 22, 24, 22, 22, 25
21, 21, 26, 23, 23, 21, 22, 23
21, 22, 24, 25, 23, 21, 21, 24
20, 22, 25, 27, 22, 25, 20, 24
23, 22, 24, 28, 23, 25, 20, 23
23, 21, 25, 27, 24, 25, 21, 21
24, 20, 25, 27, 25, 27, 19, 20
23, 21, 27, 27, 24, 27, 19, 22
24, 19, 22, 24, 26, 24, 21, 22
22, 20, 23, 22, 26, 26, 20, 22
20, 21, 24, 22, 24, 25, 21, 23
19, 21, 24, 23, 20, 23, 22, 25
20, 22, 23, 24, 20, 24, 23, 22
20, 23, 24, 23, 18, 22, 22, 24
23, 23, 24, 23, 21, 23, 22, 23
23, 23, 22, 24, 20, 24, 21, 26
22, 23, 23, 24, 22, 25, 21, 24
24, 21, 24, 22, 23, 26, 20, 24
23, 22, 24, 22, 23, 27, 21, 23
21, 22, 26, 24, 23, 27, 23, 27
22, 20, 26, 22, 23, 26, 23, 25
22, 21, 25, 21, 22, 25, 22, 25
21, 22, 24, 21, 22, 24, 24, 26
23, 23, 25, 24, 22, 23, 25, 26
24, 22, 22, 21, 20, 21, 22, 23
23, 24, 21, 23, 22, 22, 24, 22
23, 23, 23, 22, 22, 21, 23, 23
22, 24, 23, 23, 24, 21, 22, 23
20, 24, 23, 22, 23, 22, 21, 22
19, 23, 23, 24, 24, 21, 22, 24
20, 23, 23, 22, 23, 21, 22, 24
20, 22, 22, 23, 23, 20, 23, 23
20, 22, 22, 24, 22, 21, 23, 22
19, 23, 24, 24, 23, 22, 24, 23
22, 25, 22, 23, 21, 24, 23, 21
21, 24, 23, 24, 22, 23, 24, 21
20, 26, 23, 24, 22, 23, 24, 23
21, 24, 24, 22, 22, 23, 22, 22
22, 22, 22, 21, 22, 23, 23, 22
20, 21, 23, 21, 22, 22, 23, 22
22, 21, 25, 22, 20, 23, 20, 22
23, 22, 23, 21, 20, 24, 20, 21
22, 25, 23, 24, 21, 23, 22, 23
23, 26, 23, 24, 20, 23, 21, 22
24, 27, 23, 23, 22, 22, 22, 21
22, 25, 24, 23, 23, 24, 22, 22
23, 24, 24, 24, 23, 23, 21, 21
23, 24, 26, 21, 24, 23, 23, 21
22, 23, 27, 22, 22, 22, 23, 21
22, 22, 26, 23, 22, 22, 22, 23
22, 23, 25, 22, 22, 20, 22, 22
21, 23, 25, 22, 23, 20, 23, 24
21, 21, 24, 24, 22, 21, 20, 23
22, 21, 25, 23, 24, 22, 21, 23
20, 20, 26, 22, 24, 23, 21, 24
21, 22, 27, 21, 24, 24, 24, 24
22, 23, 26, 20, 25, 25, 23, 23
22, 24, 27, 20, 26, 26, 23, 23
22, 23, 25, 20, 25, 26, 23, 26
22, 25, 24, 21, 25, 27, 24, 24
22, 25, 24, 23, 25, 27, 22, 24
22, 23, 24, 23, 25, 25, 22, 24
21, 22, 23, 22, 25, 23, 23, 24
21, 23, 24, 23, 25, 23, 22, 21
21, 22, 25, 23, 25, 22, 20, 21
23, 20, 24, 22, 25, 22, 22, 21
23, 21, 25, 23, 23, 22, 22, 19
23, 20, 25, 25, 20, 22, 23, 19
24, 19, 25, 24, 21, 23, 22, 20
23, 21, 23, 24, 23, 22, 22, 23
23, 21, 24, 23, 23, 20, 21, 22
20, 22, 27, 25, 24, 20, 22, 23
21, 24, 25, 23, 24, 22, 22, 23
21, 24, 25, 25, 26, 20, 24, 23
22, 24, 28, 24, 24, 21, 24, 22
21, 24, 26, 24, 23, 22, 25, 23
23, 24, 23, 23, 23, 23, 24, 24
22, 23, 24, 23, 24, 21, 24, 24
22, 23, 23, 21, 23, 22, 25, 24
23, 21, 22, 22, 24, 22, 25, 25
23, 21, 23, 22, 23, 21, 23, 23
22, 23, 22, 20, 23, 21, 23, 22
23, 24, 23, 21, 22, 21, 21, 22
23, 24, 23, 23, 22, 23, 22, 23
21, 24, 23, 24, 22, 22, 22, 22
20, 25, 23, 25, 22, 22, 22, 22
21, 23, 23, 25, 21, 23, 24, 22
21, 22, 23, 23, 21, 24, 24, 22
20, 23, 23, 21, 24, 21, 21, 20
20, 23, 23, 20, 24, 21, 21, 23
21, 24, 22, 18, 24, 21, 20, 22
20, 25, 21, 17, 25, 21, 20, 26
18, 25, 21, 16, 26, 25, 22, 26
19, 26, 24, 19, 23, 25, 22, 27
21, 26, 24, 20, 24, 26, 23, 24
21, 25, 24, 21, 24, 28, 24, 27
21, 23, 24, 22, 27, 27, 22, 22
22, 24, 24, 23, 25, 24, 23, 21
23, 22, 21, 24, 25, 24, 25, 20
22, 23, 21, 23, 26, 25, 24, 22
22, 23, 22, 23, 26, 23, 25, 20
23, 22, 24, 25, 23, 22, 27, 23
23, 23, 25, 25, 23, 22, 26, 22
24, 23, 26, 24, 23, 22, 25, 23
24, 24, 27, 25, 22, 21, 24, 24
22, 24, 26, 26, 21, 21, 23, 26
20, 25, 25, 23, 22, 24, 22, 24
23, 25, 25, 21, 23, 25, 22, 25
22, 26, 26, 23, 24, 24, 21, 24
22, 24, 24, 21, 24, 26, 19, 23
24, 24, 23, 20, 25, 26, 20, 22
25, 22, 24, 20, 23, 25, 18, 21
22, 23, 23, 22, 23, 24, 19, 19
22, 22, 21, 20, 26, 24, 21, 22
22, 22, 22, 22, 25, 24, 20, 22
21, 24, 22, 23, 26, 23, 19, 21
21, 25, 23, 25, 26, 23, 19, 23
20, 24, 22, 26, 26, 22, 19, 24
20, 26, 22, 25, 27, 23, 20, 22
20, 26, 22, 24, 28, 22, 22, 22
21, 25, 23, 26, 27, 22, 22, 22
22, 25, 21, 24, 27, 21, 23, 21
22, 27, 23, 23, 27, 23, 23, 21
22, 23, 23, 23, 23, 20, 21, 22
22, 23, 23, 24, 23, 21, 20, 21
20, 23, 23, 22, 23, 22, 20, 22
20, 23, 23, 24, 23, 23, 21, 22
19, 20, 23, 23, 23, 22, 22, 20
19, 23, 23, 23, 23, 22, 22, 21
21, 22, 23, 21, 22, 22, 20, 22
22, 23, 24, 21, 22, 21, 19, 22
23, 23, 25, 20, 23, 22, 18, 25
24, 26, 26, 21, 22, 23, 20, 26
24, 23, 26, 21, 21, 23, 20, 25
22, 23, 26, 23, 23, 23, 21, 24
22, 22, 24, 25, 22, 23, 22, 24
23, 25, 22, 25, 22, 22, 22, 22
22, 23, 23, 24, 23, 23, 21, 22
22, 24, 24, 23, 23, 22, 23, 22
24, 24, 23, 21, 24, 23, 22, 23
23, 24, 24, 17, 24, 23, 23, 22
21, 19, 24, 16, 25, 23, 24, 23
22, 20, 24, 18, 25, 22, 24, 23
22, 20, 24, 18, 25, 23, 22, 23
21, 23, 23, 21, 23, 24, 24, 23
21, 25, 23, 22, 23, 24, 21, 23
21, 27, 23, 23, 22, 23, 23, 25
20, 27, 23, 22, 22, 22, 21, 24
19, 27, 22, 23, 22, 23, 21, 23
20, 26, 24, 21, 24, 22, 20, 22
20, 23, 23, 20, 25, 21, 22, 24
20, 26, 23, 21, 27, 21, 19, 21
20, 26, 21, 20, 26, 21, 21, 21
22, 26, 24, 21, 27, 21, 22, 22
21, 25, 22, 21, 25, 21, 22, 22
20, 28, 22, 22, 24, 21, 23, 19
20, 24, 23, 20, 22, 22, 22, 20
22, 25, 23, 22, 23, 23, 22, 20
20, 24, 20, 20, 21, 23, 21, 19
20, 24, 22, 20, 22, 21, 20, 20
21, 22, 23, 20, 22, 24, 20, 21
23, 21, 22, 22, 22, 23, 20, 21
21, 21, 24, 22, 23, 22, 19, 22
22, 22, 25, 22, 23, 22, 19, 23
23, 23, 23, 22, 21, 23, 21, 22
23, 23, 25, 21, 21, 21, 20, 24
20, 25, 26, 22, 22, 21, 22, 24
22, 24, 25, 22, 20, 23, 22, 24
21, 24, 24, 22, 20, 22, 22, 24
23, 23, 26, 23, 23, 23, 23, 26
23, 23, 26, 24, 23, 25, 22, 25
24, 23, 25, 21, 22, 24, 21, 24
21, 22, 24, 20, 24, 24, 20, 23
23, 22, 26, 22, 23, 24, 21, 23
23, 23, 23, 20, 24, 25, 19, 21
25, 24, 23, 20, 23, 23, 18, 22
23, 23, 21, 21, 24, 24, 20, 22
23, 25, 21, 21, 22, 23, 22, 24
22, 26, 18, 19, 23, 23, 21, 24
22, 25, 19, 20, 22, 21, 21, 23
22, 24, 19, 21, 24, 21, 22, 23
22, 26, 21, 20, 21, 21, 22, 23
21, 24, 21, 20, 22, 22, 20, 22
22, 24, 23, 21, 22, 22, 20, 21
19, 25, 24, 21, 21, 22, 22, 23
18, 23, 23, 19, 21, 23, 22, 22
19, 21, 23, 21, 24, 23, 20, 23
19, 21, 25, 23, 24, 22, 21, 22
19, 21, 27, 24, 24, 24, 22, 23
20, 23, 25, 24, 24, 24, 21, 22
20, 22, 26, 24, 24, 22, 20, 22
21, 22, 26, 24, 21, 23, 22, 21
20, 23, 23, 22, 22, 25, 22, 22
20, 25, 22, 21, 22, 24, 22, 21
22, 22, 22, 22, 23, 24, 25, 22
23, 22, 22, 23, 23, 26, 26, 23
22, 21, 24, 23, 24, 26, 25, 23
23, 21, 26, 26, 24, 24, 25, 23
24, 22, 24, 25, 23, 26, 25, 23
25, 22, 25, 22, 21, 24, 22, 24
24, 24, 25, 22, 22, 22, 23, 23
24, 24, 24, 21, 21, 22, 23, 22
26, 25, 24, 18, 19, 21, 23, 24
25, 22, 24, 20, 20, 17, 23, 25
24, 22, 25, 21, 20, 21, 23, 25
23, 23, 23, 22, 24, 22, 21, 24
25, 23, 24, 22, 25, 22, 21, 26
24, 22, 23, 22, 26, 22, 22, 25
22, 24, 24, 32, 33, 25, 20, 26
20, 23, 25, 36, 35, 21, 21, 23
22, 22, 27, 34, 32, 23, 22, 24
21, 23, 25, 36, 32, 23, 22, 21
22, 25, 24, 38, 32, 22, 22, 20
21, 26, 25, 29, 25, 21, 21, 19
24, 25, 23, 24, 23, 22, 21, 19
22, 25, 21, 25, 23, 21, 22, 19
22, 25, 22, 22, 23, 21, 22, 19
21, 22, 23, 22, 20, 21, 23, 19
24, 19, 23, 21, 22, 22, 25, 20
22, 21, 25, 21, 22, 22, 25, 22
23, 20, 24, 23, 21, 22, 24, 22
22, 20, 25, 23, 23, 23, 22, 22
25, 21, 24, 25, 24, 25, 21, 22
23, 21, 22, 25, 22, 25, 19, 22
24, 22, 23, 24, 24, 25, 21, 21
23, 22, 25, 24, 25, 26, 20, 21
23, 21, 26, 23, 24, 24, 20, 20
21, 21, 27, 22, 23, 22, 21, 22
21, 22, 28, 22, 25, 22, 22, 22
18, 21, 26, 24, 24, 24, 20, 22
20, 22, 24, 23, 24, 21, 21, 21
21, 24, 24, 24, 24, 23, 21, 22
20, 25, 21, 20, 27, 23, 20, 20
20, 25, 21, 23, 26, 23, 19, 20
22, 26, 22, 23, 25, 22, 20, 20
21, 25, 21, 22, 25, 23, 19, 20
19, 24, 23, 24, 24, 22, 21, 18
20, 24, 24, 24, 21, 23, 21, 18
21, 21, 24, 22, 20, 23, 21, 17
21, 20, 24, 22, 22, 23, 21, 19
20, 21, 25, 23, 22, 24, 21, 20
23, 19, 21, 21, 21, 22, 22, 22
22, 19, 21, 21, 22, 22, 21, 22
22, 21, 22, 21, 23, 22, 21, 24
22, 21, 22, 23, 23, 22, 22, 24
24, 21, 21, 21, 21, 24, 22, 23
22, 21, 23, 22, 24, 25, 21, 21
24, 23, 23, 23, 26, 25, 22, 22
25, 22, 23, 24, 25, 25, 22, 21
26, 23, 25, 23, 23, 25, 21, 22
25, 24, 24, 24, 25, 23, 19, 23
25, 26, 23, 24, 24, 24, 19, 24
25, 24, 23, 22, 21, 23, 18, 24
24, 27, 22, 22, 22, 23, 19, 22
22, 25, 19, 23, 23, 22, 19, 21
22, 24, 20, 24, 20, 22, 21, 21
23, 22, 22, 25, 20, 21, 22, 20
21, 23, 22, 25, 19, 22, 24, 21
21, 20, 24, 24, 18, 21, 22, 23
20, 22, 23, 23, 19, 21, 24, 24
21, 22, 24, 24, 21, 21, 24, 22
19, 23, 24, 23, 21, 23, 22, 23
19, 23, 24, 24, 22, 21, 23, 22
21, 26, 25, 23, 23, 22, 25, 20
23, 24, 27, 21, 22, 23, 24, 19
23, 23, 25, 18, 22, 25, 24, 20
23, 22, 25, 17, 23, 23, 23, 20
23, 23, 24, 17, 22, 24, 22, 21
24, 22, 22, 18, 21, 23, 22, 22
21, 24, 20, 20, 23, 25, 23, 22
21, 25, 21, 21, 24, 23, 21, 22
23, 25, 21, 21, 23, 24, 23, 23
24, 23, 21, 20, 24, 23, 22, 23
21, 20, 22, 23, 26, 24, 20, 22
23, 21, 21, 22, 24, 23, 20, 22
23, 20, 22, 22, 22, 23, 20, 20
24, 22, 22, 23, 22, 22, 19, 19
24, 22, 21, 25, 20, 24, 18, 20
25, 24, 19, 22, 20, 23, 19, 21
23, 24, 22, 21, 20, 22, 20, 23
22, 23, 20, 24, 21, 23, 20, 24
21, 22, 23, 23, 21, 23, 21, 23
23, 24, 23, 25, 21, 21, 23, 23
24, 23, 24, 26, 20, 22, 24, 22
23, 22, 22, 26, 21, 22, 23, 24
22, 22, 22, 25, 21, 21, 24, 23
23, 22, 21, 26, 22, 22, 22, 26
22, 22, 20, 22, 21, 23, 22, 25
21, 23, 21, 20, 22, 22, 22, 25
23, 22, 21, 23, 22, 21, 22, 23
22, 23, 23, 23, 22, 23, 22, 25
21, 23, 22, 22, 23, 22, 23, 23
21, 22, 24, 24, 23, 22, 21, 24
22, 23, 24, 24, 21, 22, 20, 24
20, 24, 23, 22, 19, 23, 21, 23
21, 25, 22, 24, 22, 22, 21, 23
22, 26, 23, 24, 21, 24, 22, 24
22, 24, 22, 22, 23, 22, 22, 24
20, 23, 23, 24, 24, 22, 22, 25
20, 22, 22, 23, 24, 21, 22, 25
19, 21, 24, 21, 23, 23, 22, 24
22, 21, 25, 23, 22, 21, 22, 23
20, 23, 23, 22, 23, 22, 22, 23
21, 23, 24, 22, 21, 22, 22, 23
23, 24, 24, 21, 23, 23, 23, 23
23, 23, 22, 22, 22, 20, 22, 24
21, 21, 24, 21, 25, 21, 22, 25
22, 20, 24, 21, 23, 21, 23, 24
21, 20, 22, 23, 24, 22, 23, 24
20, 21, 24, 23, 23, 21, 24, 24
21, 21, 24, 22, 23, 22, 22, 23
19, 23, 22, 23, 22, 22, 23, 21
20, 24, 23, 27, 22, 23, 21, 23
20, 24, 23, 25, 22, 22, 21, 22
19, 23, 23, 26, 22, 22, 19, 21
21, 23, 23, 25, 22, 23, 23, 23
21, 22, 23, 23, 23, 23, 23, 23
21, 22, 25, 19, 23, 21, 24, 24
22, 24, 27, 20, 24, 22, 24, 24
22, 24, 26, 19, 24, 22, 24, 24
20, 22, 27, 20, 23, 20, 23, 24
21, 23, 26, 20, 21, 20, 22, 25
20, 25, 25, 22, 22, 20, 21, 22
20, 23, 24, 21, 20, 20, 20, 22
22, 22, 24, 23, 20, 21, 20, 22
21, 25, 24, 23, 19, 23, 21, 21
21, 24, 23, 23, 21, 23, 22, 21
22, 21, 23, 22, 19, 22, 22, 22
22, 24, 24, 22, 20, 22, 20, 23
22, 23, 24, 22, 21, 24, 21, 22
22, 23, 23, 21, 21, 24, 22, 23
22, 23, 24, 20, 20, 24, 21, 22
20, 23, 23, 21, 21, 24, 24, 21
21, 19, 25, 22, 21, 25, 25, 20
21, 22, 24, 20, 21, 23, 25, 21
23, 19, 24, 20, 21, 23, 24, 22
24, 20, 24, 20, 22, 23, 24, 24
26, 21, 23, 21, 23, 24, 21, 23
25, 22, 23, 21, 24, 23, 23, 24
24, 20, 22, 23, 23, 24, 23, 24
22, 21, 23, 23, 24, 24, 24, 24
22, 21, 22, 24, 22, 22, 24, 22
20, 20, 25, 21, 22, 20, 24, 26
23, 20, 22, 22, 24, 21, 22, 24
22, 22, 22, 22, 24, 21, 22, 25
23, 21, 23, 22, 22, 21, 21, 24
23, 20, 23, 23, 23, 22, 22, 22
22, 23, 21, 24, 23, 24, 22, 23
20, 23, 23, 23, 22, 25, 22, 22
18, 22, 25, 21, 24, 24, 24, 21
19, 22, 26, 23, 25, 24, 21, 22
21, 24, 26, 22, 25, 25, 20, 24
22, 24, 26, 22, 24, 22, 21, 21
24, 24, 26, 22, 23, 22, 23, 22
26, 25, 25, 24, 21, 22, 22, 23
24, 26, 23, 22, 22, 21, 24, 22
25, 26, 22, 23, 21, 20, 24, 22
25, 26, 23, 22, 21, 22, 24, 21
24, 27, 20, 24, 22, 22, 24, 21
22, 25, 20, 23, 22, 21, 23, 19
23, 23, 19, 23, 20, 20, 22, 22
22, 22, 20, 23, 24, 23, 22, 21
21, 24, 21, 23, 23, 23, 21, 22
21, 24, 21, 21, 24, 22, 19, 23
24, 25, 21, 22, 25, 23, 20, 23
24, 25, 23, 22, 25, 24, 20, 21
24, 25, 22, 20, 23, 22, 21, 21
24, 22, 21, 20, 25, 24, 21, 21
23, 22, 23, 22, 24, 23, 22, 20
21, 20, 23, 22, 23, 22, 21, 20
21, 21, 22, 23, 25, 22, 22, 21
20, 22, 22, 23, 25, 24, 22, 20
20, 20, 25, 23, 23, 22, 22, 20
20, 20, 22, 23, 24, 23, 22, 18
18, 23, 22, 22, 24, 25, 23, 18
19, 22, 23, 20, 24, 26, 22, 18
19, 23, 24, 19, 22, 23, 21, 18
18, 24, 23, 20, 22, 23, 21, 18
20, 22, 24, 19, 21, 24, 21, 21
21, 23, 25, 21, 20, 22, 21, 21
21, 26, 23, 21, 23, 21, 22, 22
22, 24, 24, 21, 24, 22, 20, 22
22, 25, 24, 20, 25, 21, 21, 23
20, 27, 23, 21, 25, 22, 21, 19
21, 25, 23, 19, 25, 22, 22, 21
21, 24, 23, 21, 24, 24, 22, 21
21, 24, 22, 21, 22, 24, 23, 22
21, 23, 22, 21, 22, 25, 23, 22
22, 20, 22, 21, 22, 25, 21, 24
22, 20, 21, 23, 23, 25, 20, 23
21, 21, 22, 22, 21, 24, 19, 22
20, 22, 22, 22, 24, 24, 18, 24
22, 21, 22, 22, 24, 23, 19, 23
22, 23, 23, 21, 24, 23, 18, 22
22, 25, 23, 21, 24, 23, 19, 21
23, 23, 22, 21, 25, 23, 23, 26
23, 22, 23, 21, 24, 23, 24, 23
23, 25, 21, 22, 23, 23, 24, 25
23, 24, 20, 23, 22, 24, 25, 26
21, 23, 19, 21, 23, 24, 25, 26
20, 24, 21, 21, 22, 24, 23, 23
21, 25, 22, 20, 23, 24, 24, 24
20, 22, 21, 22, 23, 23, 25, 23
20, 23, 24, 22, 24, 22, 23, 21
21, 21, 24, 21, 25, 22, 24, 20
22, 20, 24, 23, 24, 21, 24, 20
22, 22, 24, 24, 23, 23, 23, 20
23, 22, 25, 24, 24, 24, 24, 22
23, 21, 25, 23, 22, 24, 25, 22
22, 24, 26, 23, 21, 24, 25, 23
21, 24, 26, 23, 22, 25, 23, 23
22, 23, 25, 23, 20, 23, 23, 23
21, 24, 24, 22, 19, 23, 20, 22
20, 25, 24, 22, 22, 24, 20, 24
21, 23, 23, 22, 23, 24, 19, 24
22, 25, 22, 23, 21, 24, 22, 22
22, 24, 23, 24, 23, 23, 22, 23
21, 23, 24, 23, 22, 22, 23, 22
21, 22, 22, 24, 21, 22, 22, 19
21, 24, 22, 24, 20, 22, 23, 20
24, 22, 25, 23, 21, 22, 21, 22
23, 24, 26, 25, 20, 23, 21, 22
23, 23, 26, 24, 23, 23, 20, 23
24, 25, 28, 24, 23, 22, 22, 23
22, 24, 28, 25, 24, 22, 23, 27
20, 23, 28, 24, 23, 22, 23, 25
20, 22, 28, 22, 25, 21, 23, 27
22, 22, 28, 23, 24, 23, 24, 27
21, 21, 26, 23, 23, 22, 23, 28
24, 22, 26, 24, 23, 22, 22, 24
24, 23, 23, 23, 24, 23, 21, 24
25, 23, 22, 24, 22, 23, 23, 21
25, 23, 23, 24, 22, 22, 24, 24
24, 24, 23, 24, 23, 22, 23, 23
24, 25, 23, 21, 22, 22, 25, 25
23, 23, 23, 24, 22, 23, 24, 25
23, 23, 25, 22, 22, 24, 22, 24
22, 24, 22, 23, 21, 25, 21, 23
22, 24, 23, 25, 20, 24, 21, 23
21, 24, 22, 24, 21, 24, 20, 21
20, 26, 22, 21, 22, 23, 20, 21
22, 26, 21, 24, 21, 24, 20, 21
23, 25, 23, 22, 22, 24, 21, 20
23, 23, 25, 18, 24, 23, 22, 23
23, 21, 26, 19, 23, 24, 23, 25
24, 22, 26, 21, 22, 25, 23, 25
22, 21, 25, 21, 23, 25, 23, 25
21, 21, 24, 22, 21, 24, 22, 25
21, 23, 20, 24, 20, 26, 21, 24
21, 23, 21, 25, 21, 25, 20, 22
19, 22, 21, 25, 20, 24, 21, 24
21, 24, 22, 22, 20, 24, 22, 23
20, 22, 22, 22, 21, 24, 22, 22
20, 23, 23, 22, 20, 22, 22, 21
21, 23, 22, 20, 19, 21, 23, 22
21, 24, 23, 19, 21, 22, 21, 20
20, 26, 23, 20, 21, 23, 19, 20
21, 27, 22, 20, 21, 21, 20, 24
22, 25, 21, 22, 22, 21, 20, 24
22, 26, 25, 22, 22, 23, 20, 23
22, 28, 23, 22, 22, 23, 22, 22
21, 22, 22, 23, 22, 22, 22, 23
21, 24, 24, 23, 23, 23, 22, 20
20, 24, 24, 20, 24, 24, 21, 19
21, 24, 21, 22, 24, 23, 21, 19
22, 23, 24, 22, 23, 22, 19, 20
22, 24, 24, 21, 23, 22, 20, 20
22, 24, 24, 22, 20, 23, 19, 19
23, 24, 23, 21, 19, 23, 20, 21
24, 22, 25, 21, 21, 22, 21, 21
23, 24, 23, 21, 23, 21, 21, 20
24, 26, 21, 20, 22, 22, 22, 20
23, 26, 23, 19, 24, 22, 23, 19
22, 26, 24, 21, 23, 20, 22, 19
21, 25, 22, 20, 20, 21, 24, 20
22, 24, 23, 20, 21, 23, 23, 20
21, 23, 23, 20, 21, 22, 22, 20
23, 21, 22, 21, 19, 21, 23, 21
23, 21, 22, 20, 21, 22, 22, 20
22, 23, 21, 22, 25, 23, 21, 20
20, 23, 21, 22, 23, 23, 22, 21
20, 23, 25, 22, 25, 23, 22, 20
19, 24, 23, 23, 26, 24, 21, 21
20, 25, 26, 23, 24, 24, 21, 21
21, 25, 25, 22, 23, 23, 20, 21
22, 25, 25, 22, 23, 23, 19, 23
22, 24, 24, 20, 20, 22, 19, 24
25, 26, 24, 21, 21, 22, 18, 23
24, 26, 22, 23, 24, 23, 19, 24
24, 27, 23, 21, 21, 24, 20, 25
23, 27, 24, 22, 23, 24, 20, 22
26, 28, 24, 23, 24, 24, 19, 22
24, 26, 25, 21, 25, 24, 20, 23
24, 24, 25, 21, 23, 25, 21, 22
23, 22, 24, 23, 25, 24, 21, 22
24, 21, 23, 21, 23, 24, 20, 22
22, 20, 24, 22, 24, 23, 22, 22
21, 20, 21, 23, 25, 23, 23, 22
19, 20, 21, 22, 24, 21, 22, 22
20, 20, 26, 22, 23, 22, 22, 20
21, 19, 25, 25, 23, 22, 23, 20
22, 21, 23, 25, 21, 22, 22, 19
23, 22, 25, 23, 20, 22, 22, 17

25, 22, 25, 23, 21, 23, 23, 18
25, 23, 23, 23, 22, 24, 23, 19
25, 24, 24, 23, 19, 23, 23, 19
24, 23, 26, 23, 21, 23, 23, 22
25, 25, 24, 24, 21, 25, 21, 23
23, 23, 24, 24, 20, 24, 22, 22
23, 24, 23, 24, 19, 21, 24, 22
21, 23, 24, 23, 22, 25, 23, 23
20, 23, 25, 25, 24, 24, 23, 23
19, 23, 25, 25, 23, 22, 24, 23
21, 25, 25, 26, 24, 24, 26, 23
21, 25, 25, 24, 24, 26, 24, 22
21, 26, 24, 24, 23, 25, 25, 24
21, 25, 22, 21, 22, 25, 25, 22
21, 24, 23, 22, 23, 26, 24, 25
20, 23, 23, 21, 23, 23, 22, 24
21, 23, 22, 23, 24, 21, 22, 25
21, 22, 22, 23, 25, 23, 22, 23
21, 23, 24, 23, 24, 23, 23, 23
21, 23, 23, 22, 23, 21, 25, 22
22, 23, 25, 22, 23, 24, 25, 21
21, 25, 27, 21, 23, 24, 25, 20
20, 23, 26, 20, 23, 22, 25, 21
21, 21, 25, 21, 22, 22, 23, 22
22, 23, 25, 22, 22, 23, 22, 24
21, 24, 23, 22, 21, 21, 23, 24
23, 22, 19, 22, 20, 20, 24, 22
23, 23, 20, 22, 19, 20, 23, 23
23, 23, 19, 21, 21, 21, 25, 24
23, 21, 21, 21, 19, 21, 23, 23
22, 20, 22, 22, 20, 20, 21, 22
20, 21, 24, 21, 22, 23, 22, 22
19, 21, 25, 20, 24, 22, 22, 24
19, 23, 24, 20, 24, 22, 21, 23
20, 23, 23, 21, 26, 21, 22, 22
20, 23, 22, 21, 25, 21, 23, 23
21, 23, 21, 21, 24, 20, 20, 25
23, 23, 21, 20, 23, 21, 21, 22
23, 22, 22, 19, 24, 22, 19, 21
21, 23, 25, 18, 23, 22, 20, 23
21, 22, 26, 18, 23, 22, 21, 22
21, 21, 24, 20, 23, 23, 23, 21
20, 21, 23, 19, 22, 23, 24, 22
19, 20, 23, 21, 20, 22, 25, 21
21, 20, 21, 21, 24, 23, 24, 21
21, 21, 22, 23, 23, 25, 24, 22
20, 22, 23, 22, 24, 23, 22, 20
20, 21, 24, 23, 24, 23, 23, 21
21, 21, 24, 23, 26, 23, 22, 21
19, 23, 22, 25, 21, 24, 22, 21
19, 23, 21, 22, 22, 24, 21, 19
19, 23, 21, 22, 22, 24, 23, 21
19, 25, 21, 22, 23, 25, 19, 20
21, 25, 21, 22, 21, 23, 20, 18
21, 23, 20, 21, 22, 22, 22, 19
22, 22, 23, 22, 21, 22, 22, 20
22, 22, 24, 22, 20, 22, 21, 20
24, 21, 24, 23, 21, 22, 21, 22
22, 20, 24, 21, 21, 24, 22, 23
23, 20, 23, 22, 21, 23, 21, 22
22, 22, 22, 21, 22, 22, 21, 23
21, 21, 23, 22, 24, 23, 23, 22
20, 23, 24, 20, 23, 22, 23, 21
20, 24, 24, 21, 23, 21, 23, 20
19, 24, 25, 21, 24, 24, 22, 20
20, 24, 25, 21, 22, 23, 22, 21
19, 23, 23, 21, 20, 22, 20, 20
19, 23, 20, 22, 21, 24, 20, 20
20, 20, 21, 22, 21, 25, 21, 20
21, 20, 20, 22, 19, 23, 22, 21
21, 21, 22, 22, 23, 23, 22, 21
23, 21, 22, 22, 24, 24, 23, 22
24, 23, 22, 23, 23, 22, 22, 22
23, 23, 21, 23, 23, 21, 25, 23
21, 23, 22, 25, 24, 22, 23, 22
21, 25, 20, 24, 20, 22, 23, 21
21, 26, 22, 23, 20, 22, 25, 20
20, 26, 21, 22, 21, 23, 25, 19
20, 26, 21, 23, 21, 23, 22, 19
20, 25, 20, 21, 23, 23, 23, 19
19, 23, 23, 22, 23, 21, 25, 21
19, 22, 21, 24, 23, 21, 24, 22
20, 21, 22, 23, 22, 21, 25, 23
19, 22, 23, 21, 23, 23, 23, 23
20, 23, 23, 21, 21, 22, 23, 23
23, 25, 21, 21, 22, 23, 21, 20
21, 25, 20, 20, 22, 24, 23, 21
20, 24, 22, 21, 23, 24, 24, 20
22, 25, 34, 21, 23, 23, 24, 20
21, 25, 39, 22, 23, 23, 24, 19
19, 22, 38, 21, 24, 24, 26, 21
20, 21, 39, 23, 25, 23, 25, 23
21, 22, 41, 23, 24, 24, 26, 23
19, 21, 30, 23, 25, 24, 26, 23
19, 21, 25, 23, 23, 25, 25, 23
23, 21, 27, 25, 23, 25, 26, 22
23, 24, 26, 23, 22, 25, 25, 22
22, 25, 22, 23, 23, 25, 23, 20
24, 25, 25, 23, 23, 24, 24, 24
24, 25, 24, 23, 25, 22, 24, 24
21, 26, 26, 21, 24, 22, 23, 23
21, 26, 25, 23, 25, 21, 23, 22
22, 25, 27, 25, 25, 22, 23, 23
21, 25, 25, 25, 25, 21, 22, 21
20, 23, 25, 24, 23, 21, 23, 22
20, 23, 24, 26, 24, 20, 22, 23
21, 23, 83, 28, 23, 22, 23, 22
20, 25, 110, 27, 23, 20, 22, 20
22, 28, 131, 40, 26, 21, 24, 20
20, 29, 174, 55, 27, 23, 23, 20
21, 29, 192, 62, 26, 22, 23, 21
22, 30, 193, 67, 26, 22, 22, 22
21, 27, 201, 68, 26, 24, 21, 24
18, 26, 198, 62, 23, 24, 22, 23
19, 25, 167, 55, 24, 23, 22, 23
21, 25, 181, 52, 25, 24, 22, 24
22, 31, 241, 58, 28, 24, 23, 23
24, 33, 238, 60, 30, 24, 23, 23
25, 31, 237, 59, 30, 23, 22, 24
25, 32, 241, 55, 28, 26, 23, 23
24, 31, 221, 50, 28, 24, 23, 20
22, 24, 138, 34, 26, 23, 23, 22
20, 23, 114, 26, 24, 22, 23, 22
21, 24, 102, 25, 22, 21, 23, 23
22, 22, 87, 24, 23, 20, 22, 21
21, 23, 82, 26, 23, 22, 23, 22
23, 27, 71, 26, 22, 24, 22, 20
23, 27, 86, 29, 24, 23, 23, 20
22, 28, 85, 29, 24, 23, 23, 18
22, 29, 85, 28, 23, 23, 25, 20
22, 29, 80, 24, 22, 21, 24, 21
21, 25, 84, 27, 23, 21, 24, 23
23, 24, 89, 27, 22, 24, 22, 23
22, 22, 105, 28, 21, 23, 24, 23
21, 22, 111, 30, 23, 23, 22, 23
23, 24, 112, 29, 24, 24, 24, 24
23, 23, 109, 28, 23, 24, 24, 22
22, 24, 97, 28, 24, 22, 24, 21
23, 25, 78, 27, 25, 23, 24, 22
22, 25, 76, 27, 23, 23, 23, 23
21, 28, 99, 28, 22, 22, 21, 21
20, 27, 102, 27, 23, 21, 23, 21
20, 28, 132, 33, 23, 20, 23, 22
21, 28, 141, 38, 23, 21, 21, 22
23, 28, 150, 37, 24, 21, 21, 22
22, 26, 133, 36, 23, 22, 22, 22
22, 28, 132, 36, 22, 22, 20, 22
23, 26, 95, 27, 23, 23, 22, 22
24, 28, 85, 23, 22, 21, 21, 24
26, 28, 59, 23, 21, 21, 21, 21
26, 26, 91, 24, 23, 21, 22, 22
25, 24, 91, 23, 23, 21, 22, 21
27, 25, 91, 25, 23, 21, 23, 22
25, 23, 88, 23, 24, 21, 24, 20
22, 24, 86, 23, 25, 20, 25, 22
23, 27, 55, 22, 22, 20, 25, 22
23, 27, 55, 23, 22, 20, 24, 22
19, 28, 56, 22, 23, 21, 24, 21
22, 27, 53, 23, 23, 20, 24, 21
23, 24, 51, 22, 23, 21, 23, 22
22, 21, 49, 22, 25, 20, 21, 22
23, 22, 102, 23, 24, 22, 25, 23
24, 21, 106, 23, 24, 22, 22, 23
22, 21, 112, 27, 22, 22, 23, 24
23, 23, 150, 32, 24, 22, 24, 24
23, 26, 161, 36, 24, 23, 25, 26
23, 26, 154, 37, 23, 22, 21, 23
22, 25, 152, 37, 22, 20, 23, 26
24, 24, 149, 36, 23, 21, 24, 25
23, 23, 113, 33, 24, 23, 23, 25
24, 23, 97, 28, 22, 23, 22, 23
22, 24, 55, 27, 24, 23, 24, 24
22, 24, 50, 27, 24, 23, 25, 23
21, 25, 49, 26, 23, 24, 23, 25
20, 25, 42, 25, 23, 22, 24, 24
18, 23, 40, 24, 23, 22, 23, 23
23, 24, 39, 24, 22, 23, 22, 22
23, 22, 37, 21, 22, 23, 22, 22
24, 25, 38, 21, 22, 23, 22, 21
24, 23, 37, 20, 20, 22, 22, 23
26, 24, 36, 22, 21, 23, 22, 23
23, 21, 46, 22, 21, 21, 22, 24
24, 22, 45, 22, 21, 20, 21, 24
24, 22, 44, 22, 23, 22, 22, 24
22, 22, 44, 23, 23, 22, 23, 22
22, 24, 51, 24, 22, 21, 23, 22
22, 23, 44, 22, 23, 23, 23, 21
21, 24, 47, 23, 23, 24, 24, 21
21, 23, 49, 24, 21, 22, 22, 20
21, 24, 49, 24, 20, 23, 23, 21
22, 22, 41, 24, 21, 23, 23, 20
22, 23, 35, 23, 21, 21, 23, 24
23, 22, 29, 25, 20, 22, 22, 23
22, 22, 25, 23, 21, 23, 23, 23
22, 21, 21, 23, 24, 24, 22, 24
21, 23, 21, 23, 26, 22, 21, 24
20, 22, 21, 25, 25, 23, 20, 22
18, 24, 22, 24, 25, 23, 21, 21
21, 23, 21, 24, 27, 24, 21, 23
23, 25, 24, 24, 25, 23, 21, 20
23, 24, 23, 23, 25, 24, 22, 20
24, 25, 23, 22, 23, 24, 21, 21
23, 24, 23, 23, 28, 24, 21, 20
22, 25, 23, 23, 27, 24, 22, 21
21, 24, 23, 23, 27, 25, 23, 22
23, 25, 23, 21, 25, 25, 22, 23
23, 26, 24, 20, 26, 27, 22, 22
24, 25, 22, 19, 22, 26, 23, 22
23, 24, 26, 19, 21, 24, 22, 24
24, 26, 25, 18, 22, 22, 22, 23
24, 24, 25, 22, 21, 23, 24, 23
24, 25, 25, 22, 22, 19, 23, 23
24, 25, 24, 23, 22, 21, 23, 24
25, 25, 22, 22, 23, 20, 24, 21
23, 24, 24, 26, 23, 21, 22, 23
23, 25, 22, 23, 23, 20, 23, 22
22, 22, 21, 23, 23, 20, 23, 23
23, 24, 22, 24, 22, 22, 21, 23
21, 26, 21, 25, 22, 24, 21, 24
20, 24, 21, 22, 22, 26, 22, 23
19, 23, 21, 23, 23, 25, 22, 22
21, 24, 21, 23, 25, 25, 24, 22
19, 23, 22, 22, 24, 23, 24, 22
21, 23, 22, 22, 24, 21, 23, 21
21, 24, 22, 23, 26, 17, 23, 21
24, 23, 23, 23, 26, 21, 22, 22
22, 23, 23, 22, 24, 21, 21, 22
23, 23, 23, 24, 24, 23, 20, 24
23, 22, 24, 24, 26, 24, 20, 23
23, 24, 23, 26, 24, 24, 20, 23
21, 24, 22, 25, 25, 23, 22, 23
22, 24, 24, 27, 25, 22, 21, 22
19, 24, 22, 26, 26, 22, 22, 19
20, 23, 22, 26, 25, 20, 22, 20
20, 22, 22, 24, 25, 23, 23, 23
22, 21, 23, 23, 26, 22, 22, 23
21, 20, 22, 21, 25, 22, 21, 24
22, 24, 21, 22, 25, 23, 21, 24
22, 24, 20, 20, 23, 24, 21, 25
23, 25, 20, 20, 21, 21, 19, 23
22, 24, 19, 21, 23, 20, 21, 22
23, 25, 21, 21, 22, 22, 23, 21
22, 22, 22, 19, 20, 22, 22, 22
21, 24, 24, 21, 20, 21, 22, 22
21, 20, 24, 20, 22, 21, 24, 22
19, 23, 23, 19, 22, 22, 23, 23
20, 25, 23, 20, 23, 20, 25, 25
23, 25, 24, 21, 26, 21, 26, 26
25, 26, 23, 21, 25, 20, 25, 24
23, 26, 25, 22, 23, 21, 25, 24
24, 25, 26, 23, 23, 19, 25, 24
24, 23, 25, 23, 24, 21, 23, 26
23, 23, 27, 22, 23, 20, 23, 24
22, 22, 26, 23, 23, 21, 23, 24
22, 22, 24, 23, 24, 20, 23, 25
22, 23, 26, 23, 23, 20, 22, 24
21, 25, 26, 24, 20, 21, 21, 20
19, 25, 24, 23, 24, 20, 21, 21
19, 24, 24, 22, 26, 20, 21, 21
20, 23, 26, 21, 26, 21, 22, 21
20, 22, 25, 21, 25, 23, 32, 22
21, 22, 24, 21, 27, 21, 31, 23
21, 24, 23, 23, 25, 24, 31, 25
21, 24, 23, 24, 23, 23, 32, 24
21, 25, 22, 25, 22, 23, 32, 23
19, 24, 23, 24, 23, 23, 22, 21
20, 23, 25, 23, 21, 25, 22, 22
20, 22, 24, 22, 22, 24, 22, 18
22, 22, 24, 22, 21, 23, 21, 21
21, 24, 24, 20, 22, 25, 21, 22
21, 24, 23, 21, 22, 25, 21, 22
19, 24, 20, 22, 22, 23, 21, 20
18, 23, 22, 23, 21, 23, 20, 23
17, 24, 22, 22, 22, 26, 23, 23
19, 23, 23, 24, 22, 24, 22, 21
20, 24, 23, 23, 23, 23, 22, 22
21, 23, 23, 23, 22, 23, 23, 23
22, 25, 23, 22, 25, 22, 22, 23
23, 23, 23, 23, 24, 21, 19, 21
22, 24, 21, 21, 25, 23, 19, 22
22, 24, 21, 21, 26, 23, 21, 21
23, 25, 21, 21, 26, 25, 22, 23
24, 23, 23, 21, 24, 25, 23, 21
24, 25, 23, 21, 26, 24, 22, 22
25, 24, 22, 21, 23, 23, 23, 24
26, 25, 23, 21, 24, 23, 22, 23
25, 26, 22, 22, 24, 22, 22, 23
24, 26, 22, 22, 23, 23, 23, 25
22, 25, 23, 21, 21, 23, 23, 24
21, 24, 22, 22, 22, 21, 23, 23
22, 24, 22, 22, 20, 22, 22, 22
20, 25, 22, 22, 22, 24, 21, 23
20, 25, 21, 22, 23, 23, 19, 22
21, 24, 21, 22, 23, 23, 20, 22
22, 25, 23, 24, 21, 24, 21, 21
22, 25, 23, 24, 22, 24, 22, 20
23, 21, 23, 22, 20, 24, 22, 19
23, 20, 25, 23, 21, 23, 23, 18
24, 21, 24, 22, 24, 23, 23, 19
22, 24, 22, 19, 24, 23, 21, 19
22, 24, 23, 20, 22, 22, 20, 21
21, 23, 22, 20, 21, 22, 20, 20
21, 25, 20, 21, 21, 22, 20, 21
22, 24, 26, 22, 20, 22, 22, 21
22, 23, 27, 23, 20, 22, 21, 22
22, 22, 27, 24, 22, 21, 24, 22
22, 24, 29, 26, 22, 20, 24, 23
23, 24, 29, 23, 21, 24, 24, 25
21, 23, 27, 24, 20, 23, 25, 24
22, 23, 27, 23, 23, 23, 26, 23
24, 23, 26, 24, 22, 24, 23, 22
25, 23, 26, 22, 23, 24, 24, 23
24, 21, 26, 23, 23, 22, 23, 21
25, 21, 23, 23, 25, 22, 23, 23
24, 21, 23, 23, 22, 23, 22, 23
21, 22, 24, 21, 24, 21, 23, 21
20, 23, 22, 21, 24, 21, 23, 20
20, 25, 22, 22, 23, 21, 23, 22
20, 24, 22, 22, 22, 21, 22, 21
21, 23, 22, 23, 24, 23, 24, 22
23, 21, 24, 24, 23, 24, 24, 23
23, 20, 24, 24, 24, 24, 24, 23
22, 19, 25, 25, 25, 24, 25, 22
23, 20, 26, 26, 25, 23, 25, 22
24, 21, 25, 24, 25, 23, 23, 22
23, 22, 25, 24, 24, 22, 24, 22
23, 23, 26, 23, 24, 24, 24, 22
23, 23, 25, 23, 22, 23, 24, 23
24, 26, 23, 20, 24, 25, 25, 23
23, 26, 25, 21, 24, 25, 26, 22
23, 25, 24, 22, 24, 25, 25, 22
22, 24, 23, 23, 24, 23, 24, 22
21, 27, 23, 21, 24, 22, 24, 19
22, 25, 25, 22, 25, 22, 24, 21
20, 25, 24, 23, 25, 21, 23, 22
21, 25, 24, 22, 24, 22, 22, 24
24, 24, 23, 20, 24, 22, 20, 23
25, 24, 25, 21, 25, 25, 21, 24
22, 24, 22, 20, 24, 24, 19, 23
23, 22, 22, 20, 24, 25, 21, 23
22, 25, 22, 19, 23, 25, 21, 22
20, 26, 23, 19, 26, 25, 24, 22
19, 25, 22, 22, 23, 22, 22, 21
23, 23, 23, 20, 22, 23, 23, 21
23, 26, 24, 20, 22, 23, 23, 20
24, 25, 23, 23, 22, 23, 24, 21
22, 24, 23, 23, 20, 26, 21, 20
25, 25, 22, 21, 23, 25, 21, 21
21, 27, 22, 23, 23, 24, 22, 23
22, 24, 20, 23, 22, 23, 20, 24
21, 23, 22, 20, 24, 25, 20, 24
22, 23, 21, 22, 24, 22, 23, 25
21, 23, 22, 22, 22, 23, 23, 26
21, 23, 21, 21, 24, 24, 24, 25
20, 23, 23, 22, 24, 25, 24, 23
20, 25, 24, 22, 24, 22, 23, 24
21, 25, 24, 22, 22, 23, 23, 24
20, 24, 22, 24, 23, 21, 22, 23
22, 22, 25, 22, 23, 22, 22, 23
24, 23, 23, 23, 22, 21, 22, 26
24, 21, 22, 22, 21, 24, 21, 24
23, 21, 24, 22, 22, 23, 20, 24
24, 21, 28, 20, 23, 23, 22, 25
23, 22, 27, 22, 22, 23, 22, 24
22, 21, 27, 23, 23, 22, 22, 22
22, 20, 28, 23, 22, 21, 22, 24
22, 21, 28, 23, 21, 21, 22, 22
23, 21, 23, 24, 19, 23, 23, 22
24, 22, 26, 24, 20, 23, 22, 22
24, 24, 25, 24, 20, 24, 23, 22
23, 27, 26, 23, 21, 23, 22, 21
23, 26, 24, 22, 22, 24, 23, 23
22, 27, 25, 22, 22, 21, 19, 21
22, 25, 23, 21, 21, 21, 21, 22
21, 24, 24, 20, 21, 21, 21, 23
22, 20, 21, 22, 19, 20, 20, 22
21, 19, 22, 22, 19, 20, 21, 19
21, 18, 20, 22, 22, 20, 22, 21
20, 20, 19, 23, 20, 21, 24, 22
20, 21, 20, 23, 21, 21, 23, 20
21, 22, 21, 23, 22, 22, 24, 21
21, 23, 22, 23, 24, 24, 23, 21
22, 22, 22, 23, 23, 25, 24, 22
22, 24, 22, 23, 23, 23, 22, 19
22, 23, 23, 25, 22, 25, 22, 21
22, 22, 24, 22, 24, 25, 21, 21
21, 21, 23, 23, 23, 22, 21, 22
21, 23, 24, 23, 21, 21, 20, 22
22, 24, 25, 22, 22, 22, 21, 23
22, 25, 23, 23, 23, 23, 21, 21
25, 26, 22, 23, 22, 22, 21, 21
25, 27, 22, 22, 20, 23, 21, 21
23, 26, 22, 23, 24, 23, 20, 21
22, 22, 22, 23, 22, 22, 20, 21
23, 20, 23, 20, 21, 20, 19, 21
20, 20, 25, 21, 19, 21, 18, 23
22, 20, 26, 22, 25, 20, 23, 24
22, 21, 27, 22, 23, 24, 23, 24
23, 22, 27, 21, 24, 25, 23, 25
24, 25, 25, 21, 26, 25, 24, 25
22, 24, 23, 21, 26, 25, 25, 23
21, 25, 23, 21, 21, 26, 22, 23
22, 25, 23, 20, 21, 24, 23, 24
21, 25, 21, 20, 20, 22, 24, 22
22, 21, 23, 22, 20, 23, 24, 21
22, 23, 22, 22, 20, 22, 26, 21
21, 22, 22, 23, 22, 21, 25, 21
21, 21, 23, 24, 22, 22, 26, 19
21, 21, 24, 24, 22, 22, 23, 19
19, 22, 23, 24, 22, 23, 23, 22
20, 21, 24, 24, 23, 24, 21, 23
21, 21, 23, 22, 21, 25, 21, 23
21, 20, 23, 21, 22, 25, 19, 23
22, 20, 24, 22, 22, 25, 21, 25
23, 20, 23, 23, 22, 23, 22, 22
24, 20, 23, 20, 24, 23, 22, 21
23, 20, 24, 24, 26, 24, 24, 21
24, 22, 24, 27, 25, 23, 23, 23
24, 21, 23, 26, 25, 22, 23, 20
25, 23, 23, 25, 25, 24, 23, 22
23, 22, 26, 26, 23, 23, 21, 21
23, 23, 26, 25, 20, 22, 22, 21
21, 21, 26, 20, 23, 22, 23, 20
21, 22, 25, 22, 22, 24, 21, 21
18, 19, 25, 23, 22, 23, 20, 20
19, 22, 24, 21, 22, 22, 23, 20
20, 23, 21, 22, 24, 22, 21, 22
20, 24, 20, 23, 22, 22, 20, 24
22, 25, 21, 21, 21, 21, 23, 24
24, 27, 20, 21, 20, 19, 23, 25
24, 25, 21, 22, 20, 22, 22, 28
24, 24, 23, 21, 19, 23, 24, 25
24, 25, 24, 21, 21, 23, 24, 24
22, 25, 25, 22, 23, 24, 23, 26
19, 22, 26, 22, 25, 24, 25, 26
20, 23, 25, 21, 26, 24, 23, 25
19, 25, 25, 22, 26, 23, 21, 28
20, 24, 25, 20, 27, 23, 21, 26
22, 24, 22, 18, 27, 26, 21, 25
23, 24, 24, 19, 27, 26, 21, 27
22, 24, 26, 20, 26, 26, 22, 25
23, 24, 26, 18, 27, 26, 22, 23
22, 24, 26, 21, 23, 25, 20, 24
23, 23, 27, 22, 23, 22, 20, 24
21, 23, 25, 21, 21, 23, 21, 22
21, 24, 22, 23, 22, 22, 21, 22
21, 22, 21, 24, 22, 23, 21, 22
21, 23, 22, 24, 23, 24, 22, 22
21, 23, 22, 24, 22, 23, 25, 23
22, 24, 25, 24, 21, 22, 23, 21
21, 22, 24, 20, 22, 23, 22, 20
20, 23, 26, 21, 24, 24, 23, 21
21, 23, 25, 21, 23, 23, 23, 20
20, 21, 24, 22, 25, 24, 22, 21
20, 22, 23, 24, 25, 25, 23, 21
19, 22, 22, 24, 24, 24, 24, 24
20, 21, 21, 25, 21, 24, 24, 24
21, 20, 24, 24, 22, 24, 23, 25
20, 24, 27, 22, 21, 24, 23, 24
20, 24, 27, 22, 22, 24, 23, 24
22, 24, 28, 24, 21, 23, 21, 24
21, 26, 27, 23, 22, 22, 22, 22
21, 27, 26, 23, 23, 21, 24, 22
23, 24, 24, 23, 22, 21, 23, 22
24, 25, 22, 21, 21, 20, 23, 21
24, 25, 23, 22, 22, 23, 25, 20
24, 23, 25, 23, 23, 22, 24, 21
24, 23, 22, 23, 22, 22, 23, 21
24, 24, 21, 24, 24, 22, 22, 22
24, 26, 22, 25, 24, 21, 24, 22
22, 26, 21, 24, 24, 18, 22, 22
23, 25, 21, 24, 23, 18, 21, 22
23, 26, 23, 25, 25, 19, 22, 23
23, 25, 22, 24, 24, 23, 21, 23
23, 21, 22, 23, 24, 24, 20, 24
23, 22, 24, 23, 24, 24, 21, 23
22, 21, 24, 22, 24, 25, 24, 24
21, 20, 24, 21, 24, 26, 23, 23
23, 19, 24, 21, 23, 23, 24, 22
22, 21, 23, 21, 24, 24, 23, 21
23, 20, 25, 21, 24, 23, 27, 23
23, 22, 25, 24, 26, 23, 24, 21
22, 23, 24, 24, 24, 20, 24, 21
18, 24, 24, 23, 24, 22, 25, 21
19, 24, 24, 23, 24, 21, 25, 23
18, 23, 23, 22, 22, 23, 20, 21
19, 25, 24, 20, 22, 23, 21, 22
19, 23, 24, 20, 22, 25, 23, 22
23, 24, 24, 21, 23, 21, 23, 21
23, 24, 25, 21, 22, 21, 24, 20
23, 25, 24, 22, 24, 22, 24, 22
23, 26, 21, 24, 22, 23, 26, 21
25, 27, 23, 23, 24, 22, 25, 22
23, 26, 23, 25, 25, 23, 24, 22
23, 26, 22, 24, 24, 24, 23, 22
23, 26, 23, 23, 24, 23, 24, 22
23, 24, 24, 22, 24, 23, 22, 22
21, 24, 25, 22, 22, 24, 23, 24
21, 22, 26, 20, 23, 25, 22, 22
22, 22, 26, 20, 25, 24, 22, 21
22, 22, 25, 24, 23, 23, 21, 21
22, 21, 26, 23, 24, 22, 21, 21
22, 20, 24, 24, 25, 19, 20, 18
22, 25, 24, 24, 24, 20, 21, 20
21, 23, 24, 25, 24, 20, 20, 21
21, 22, 25, 23, 26, 19, 21, 21
21, 25, 30, 119, 99, 25, 20, 22
23, 28, 31, 135, 109, 30, 22, 23
23, 25, 34, 181, 142, 37, 21, 22
23, 27, 34, 186, 148, 38, 23, 22
24, 29, 34, 189, 153, 40, 22, 23
23, 27, 30, 156, 126, 38, 22, 23
22, 23, 29, 146, 120, 38, 23, 23
23, 25, 26, 87, 83, 30, 25, 23
23, 24, 25, 76, 73, 30, 25, 22
21, 24, 26, 70, 63, 29, 26, 24
21, 27, 31, 52, 47, 27, 26, 22
21, 27, 33, 41, 42, 25, 25, 22
20, 26, 33, 29, 32, 23, 24, 23
18, 27, 35, 28, 30, 22, 24, 23
21, 26, 33, 23, 29, 22, 23, 23
21, 23, 27, 23, 25, 22, 24, 22
21, 23, 25, 24, 24, 24, 25, 22
22, 22, 26, 22, 22, 24, 26, 23
22, 21, 23, 23, 24, 24, 23, 24
20, 24, 24, 24, 23, 25, 22, 21
21, 25, 24, 24, 24, 25, 20, 24
21, 27, 25, 25, 25, 23, 21, 24
20, 26, 25, 24, 24, 23, 21, 22
20, 27, 27, 25, 24, 23, 22, 20
20, 24, 27, 26, 23, 20, 22, 22
20, 23, 28, 30, 27, 21, 25, 20
19, 22, 26, 33, 27, 21, 25, 19
20, 24, 26, 35, 34, 24, 25, 23
21, 27, 27, 33, 34, 23, 25, 24
23, 28, 27, 33, 36, 24, 26, 22
21, 27, 28, 30, 33, 22, 24, 22
23, 27, 29, 30, 37, 24, 22, 24
22, 34, 28, 34, 32, 20, 20, 21
22, 32, 28, 33, 32, 23, 21, 18
21, 33, 30, 35, 30, 22, 20, 20
21, 33, 28, 35, 30, 22, 20, 22
19, 37, 31, 32, 28, 22, 21, 20
21, 31, 33, 33, 35, 25, 22, 21
21, 31, 30, 38, 35, 24, 22, 24
23, 29, 29, 36, 36, 25, 21, 23
24, 30, 29, 35, 43, 25, 23, 21
26, 25, 26, 36, 41, 26, 22, 22
26, 33, 32, 38, 38, 23, 21, 22
26, 32, 32, 35, 39, 24, 22, 23
26, 34, 32, 36, 38, 24, 23, 25
28, 34, 32, 38, 33, 24, 23, 26
27, 34, 33, 37, 33, 23, 21, 26
27, 28, 24, 31, 30, 25, 21, 26
26, 30, 24, 32, 32, 25, 20, 24
27, 28, 28, 31, 32, 25, 21, 21
24, 27, 29, 31, 31, 25, 21, 22
24, 28, 29, 31, 30, 25, 23, 22
23, 27, 29, 28, 29, 24, 23, 22
24, 29, 28, 28, 29, 22, 24, 26
22, 29, 24, 28, 33, 23, 23, 28
21, 29, 25, 27, 33, 23, 22, 28
20, 31, 25, 27, 38, 23, 22, 27
22, 31, 26, 27, 41, 23, 24, 27
23, 31, 26, 25, 40, 24, 23, 24
23, 35, 31, 84, 57, 25, 22, 26
24, 36, 32, 88, 59, 25, 24, 24
23, 42, 33, 89, 58, 24, 24, 22
22, 45, 40, 93, 63, 26, 21, 21
20, 45, 42, 95, 63, 27, 21, 22
22, 45, 41, 58, 47, 24, 22, 19
23, 46, 41, 93, 66, 26, 22, 20
24, 40, 41, 96, 67, 29, 21, 22
24, 36, 34, 95, 66, 27, 22, 22
24, 38, 35, 95, 71, 30, 23, 20
23, 36, 32, 91, 72, 30, 21, 20
21, 35, 29, 51, 55, 30, 21, 22
22, 33, 28, 41, 51, 27, 21, 22
21, 31, 31, 35, 42, 26, 21, 23
21, 26, 26, 33, 31, 21, 20, 23
22, 28, 29, 30, 27, 22, 21, 23
23, 27, 30, 27, 27, 21, 21, 22
23, 31, 31, 36, 35, 20, 22, 21
24, 30, 30, 38, 37, 21, 22, 21
25, 33, 33, 39, 41, 21, 21, 22
24, 31, 33, 61, 44, 21, 26, 22
25, 32, 34, 92, 66, 22, 25, 22
23, 33, 34, 91, 65, 23, 24, 23
22, 35, 34, 94, 66, 22, 25, 22
22, 36, 32, 94, 66, 26, 26, 23
22, 37, 31, 83, 67, 26, 21, 23
21, 35, 27, 87, 56, 26, 23, 22
23, 35, 28, 90, 56, 28, 25, 24
24, 49, 35, 88, 64, 29, 24, 23
24, 53, 40, 103, 86, 31, 24, 23
24, 56, 42, 142, 107, 33, 25, 24
26, 58, 42, 122, 105, 33, 22, 25
23, 57, 41, 121, 103, 31, 22, 22
24, 45, 35, 121, 101, 31, 23, 23
24, 60, 34, 111, 84, 27, 22, 22
24, 60, 33, 54, 52, 23, 21, 21
30, 72, 41, 55, 47, 23, 22, 23
33, 80, 55, 50, 47, 25, 19, 23
33, 82, 56, 51, 42, 25, 21, 23
34, 75, 57, 62, 45, 25, 21, 22
35, 76, 56, 77, 59, 27, 23, 22
29, 65, 53, 78, 63, 30, 24, 20
28, 58, 42, 85, 84, 32, 24, 20
28, 63, 51, 107, 91, 32, 23, 22
25, 59, 47, 99, 91, 34, 22, 22
26, 62, 48, 108, 88, 34, 19, 21
28, 93, 49, 134, 105, 34, 20, 22
28, 94, 49, 163, 101, 32, 22, 21
26, 89, 43, 165, 98, 33, 21, 20
28, 89, 41, 167, 97, 33, 21, 21
28, 89, 42, 160, 103, 32, 22, 21
25, 55, 42, 143, 88, 32, 21, 21
25, 50, 41, 112, 78, 30, 19, 22
26, 56, 38, 93, 72, 29, 19, 22
26, 58, 41, 125, 84, 30, 19, 22
25, 53, 43, 123, 72, 30, 19, 22
28, 68, 47, 122, 66, 29, 20, 22
29, 91, 47, 114, 68, 32, 21, 22
27, 92, 48, 122, 82, 33, 21, 21
27, 91, 47, 103, 86, 32, 22, 22
30, 93, 45, 130, 105, 31, 21, 21
29, 87, 39, 160, 115, 35, 25, 20
29, 77, 47, 162, 116, 32, 23, 21
28, 71, 47, 177, 117, 33, 22, 22
30, 109, 49, 178, 123, 33, 21, 22
27, 114, 51, 169, 112, 32, 20, 22
29, 114, 51, 144, 111, 33, 17, 22
28, 107, 44, 182, 123, 34, 19, 24
29, 109, 46, 166, 121, 34, 21, 23
28, 74, 43, 155, 106, 32, 23, 24
30, 68, 45, 144, 104, 32, 25, 24
29, 83, 49, 172, 104, 31, 24, 24
31, 118, 52, 158, 107, 30, 25, 23
32, 117, 48, 164, 101, 30, 24, 23
31, 116, 51, 165, 102, 30, 26, 20
28, 113, 46, 187, 109, 36, 24, 23
28, 103, 40, 161, 99, 32, 24, 23
26, 62, 35, 164, 95, 34, 24, 22
27, 80, 48, 168, 98, 35, 23, 22
29, 96, 64, 188, 105, 37, 24, 25
31, 106, 68, 164, 92, 34, 24, 24
30, 103, 70, 173, 111, 36, 24, 23
30, 105, 73, 179, 112, 34, 23, 24
30, 113, 66, 173, 114, 31, 24, 24
29, 111, 71, 152, 113, 29, 24, 24
27, 104, 85, 157, 118, 31, 24, 24
29, 108, 102, 149, 111, 32, 27, 28
32, 140, 122, 204, 145, 35, 28, 28
31, 134, 133, 213, 147, 36, 27, 29
30, 127, 134, 210, 144, 36, 25, 28
30, 127, 127, 210, 142, 36, 26, 29
29, 126, 116, 222, 167, 37, 26, 25
28, 113, 115, 207, 156, 34, 25, 25
33, 114, 108, 195, 153, 33, 25, 26
33, 113, 107, 195, 155, 33, 25, 26
36, 113, 111, 193, 163, 36, 26, 25
38, 116, 128, 219, 160, 36, 24, 27
38, 93, 114, 159, 134, 35, 24, 27
35, 127, 114, 160, 131, 36, 25, 26
35, 127, 108, 176, 138, 36, 24, 26
35, 134, 112, 186, 131, 32, 24, 25
33, 135, 103, 150, 112, 29, 24, 24
36, 157, 106, 150, 111, 27, 25, 23
39, 146, 108, 144, 109, 28, 25, 21
38, 151, 105, 143, 109, 31, 26, 22
37, 144, 94, 128, 102, 29, 24, 23
39, 159, 84, 157, 114, 30, 24, 27
38, 146, 91, 168, 112, 33, 24, 28
36, 122, 98, 196, 118, 32, 23, 29
36, 122, 104, 211, 142, 33, 27, 30
38, 130, 108, 241, 157, 40, 28, 31
37, 138, 111, 215, 138, 38, 27, 28
36, 148, 114, 236, 154, 42, 27, 28
35, 155, 109, 238, 161, 45, 27, 27
36, 160, 108, 242, 181, 54, 25, 25
33, 159, 105, 211, 170, 50, 22, 23
35, 142, 114, 236, 171, 50, 23, 23
32, 137, 108, 212, 166, 47, 21, 24
38, 146, 137, 199, 180, 53, 25, 27
36, 140, 148, 173, 139, 43, 22, 28
37, 134, 153, 212, 143, 44, 25, 28
35, 129, 147, 206, 155, 46, 24, 28
36, 107, 143, 202, 151, 48, 25, 26
33, 90, 113, 197, 134, 41, 25, 26
37, 103, 114, 211, 127, 39, 26, 25
36, 105, 109, 208, 139, 40, 24, 24
35, 110, 106, 201, 131, 39, 25, 24
37, 134, 116, 205, 132, 39, 25, 25
36, 145, 156, 210, 127, 39, 23, 25
34, 145, 150, 205, 139, 40, 21, 25
37, 152, 154, 177, 131, 37, 23, 25
38, 157, 156, 164, 129, 37, 22, 25
39, 171, 179, 168, 125, 34, 22, 27
40, 170, 155, 178, 118, 32, 21, 26
40, 160, 155, 210, 140, 45, 22, 27
40, 157, 164, 212, 140, 46, 22, 27
38, 163, 180, 213, 136, 46, 24, 27
37, 170, 161, 208, 144, 56, 28, 27
50, 211, 157, 205, 156, 57, 28, 29
50, 222, 153, 166, 127, 47, 28, 27
49, 223, 160, 197, 160, 54, 29, 30
52, 221, 198, 243, 175, 58, 30, 31
56, 231, 222, 254, 172, 49, 27, 30
46, 212, 219, 241, 164, 50, 31, 29
46, 209, 242, 233, 163, 49, 31, 29
47, 205, 276, 207, 123, 40, 31, 27
45, 215, 313, 163, 98, 35, 30, 26
40, 174, 345, 168, 92, 36, 29, 26
39, 143, 367, 186, 119, 37, 26, 23
38, 124, 372, 214, 122, 38, 25, 27
38, 124, 356, 279, 130, 47, 26, 27
35, 111, 315, 362, 163, 46, 26, 26
37, 124, 276, 380, 201, 52, 27, 27
36, 116, 269, 387, 219, 61, 29, 26
34, 120, 252, 378, 221, 63, 29, 25
36, 141, 271, 388, 234, 57, 27, 24
36, 135, 320, 390, 224, 61, 32, 26
34, 135, 326, 403, 198, 54, 32, 27
35, 139, 335, 396, 160, 43, 30, 27
36, 142, 350, 447, 157, 43, 31, 26
34, 122, 335, 423, 131, 41, 31, 28
38, 113, 356, 381, 122, 32, 25, 27
37, 119, 344, 388, 112, 37, 26, 27
38, 150, 362, 436, 124, 39, 27, 29
37, 145, 378, 440, 164, 41, 43, 30
37, 142, 398, 428, 163, 44, 59, 31
36, 152, 371, 430, 157, 45, 63, 31
35, 139, 441, 410, 173, 51, 65, 32
32, 105, 437, 374, 169, 49, 65, 31
36, 107, 440, 333, 132, 47, 57, 33
37, 123, 477, 369, 129, 46, 43, 31
41, 141, 450, 379, 151, 49, 55, 31
40, 143, 399, 381, 149, 43, 52, 27
40, 155, 427, 385, 156, 48, 53, 28
39, 156, 476, 409, 157, 51, 55, 27
42, 167, 447, 424, 160, 53, 54, 27
43, 180, 455, 488, 179, 55, 39, 28
43, 180, 509, 496, 166, 55, 40, 28
45, 180, 462, 486, 153, 49, 38, 29
46, 206, 383, 447, 151, 45, 33, 26
46, 230, 377, 437, 157, 48, 30, 26
48, 220, 383, 409, 123, 48, 32, 27
52, 250, 313, 418, 133, 45, 64, 27
52, 257, 335, 414, 134, 50, 101, 28
51, 264, 410, 414, 129, 51, 105, 26
50, 265, 411, 386, 121, 50, 107, 30
44, 254, 417, 299, 129, 46, 108, 29
41, 219, 393, 237, 121, 51, 94, 29
43, 221, 382, 264, 131, 47, 54, 27
41, 194, 308, 273, 140, 46, 45, 31
39, 188, 333, 280, 141, 42, 39, 25
37, 182, 306, 266, 115, 45, 106, 26
37, 185, 328, 285, 110, 44, 108, 29
31, 166, 337, 257, 99, 43, 111, 31
31, 168, 419, 357, 97, 43, 111, 30
31, 113, 422, 358, 94, 43, 134, 32
29, 106, 427, 377, 92, 67, 114, 34
32, 109, 435, 367, 85, 72, 118, 34
36, 148, 451, 372, 82, 76, 117, 31
37, 136, 374, 267, 64, 76, 139, 32
36, 138, 313, 306, 74, 85, 138, 32
36, 138, 303, 317, 107, 76, 143, 33
34, 131, 285, 310, 104, 89, 204, 40
31, 92, 235, 299, 104, 96, 226, 41
29, 88, 235, 302, 104, 97, 230, 40
30, 84, 245, 285, 96, 95, 234, 42
30, 85, 349, 287, 63, 93, 260, 42
29, 82, 340, 301, 65, 103, 221, 38
29, 63, 348, 318, 60, 102, 233, 39
27, 59, 347, 318, 60, 110, 237, 39
28, 64, 375, 291, 60, 107, 223, 35
28, 59, 360, 273, 55, 101, 184, 33
30, 57, 383, 273, 48, 90, 238, 37
29, 56, 378, 247, 51, 95, 216, 35
30, 51, 371, 240, 47, 85, 203, 35
28, 50, 341, 204, 50, 91, 228, 39
28, 66, 285, 170, 45, 99, 246, 42
30, 72, 247, 157, 47, 82, 198, 38
34, 78, 261, 171, 53, 89, 238, 41
35, 81, 251, 175, 57, 104, 287, 45
36, 75, 256, 171, 51, 103, 305, 41
36, 69, 252, 169, 52, 104, 320, 40
32, 66, 254, 157, 51, 109, 326, 39
30, 58, 247, 151, 47, 98, 294, 39
32, 82, 385, 194, 44, 80, 250, 35
33, 81, 378, 206, 51, 103, 248, 37
33, 78, 398, 217, 59, 100, 214, 36
35, 79, 416, 222, 62, 98, 195, 36
33, 89, 433, 215, 59, 93, 241, 31
33, 85, 353, 197, 57, 92, 246, 30
34, 95, 352, 230, 56, 70, 207, 33
36, 109, 368, 223, 54, 66, 225, 33
37, 110, 383, 228, 55, 83, 245, 37
37, 105, 361, 226, 55, 83, 202, 38
35, 95, 325, 211, 55, 87, 202, 39
32, 92, 315, 209, 53, 93, 222, 36
29, 72, 244, 217, 51, 96, 203, 33
27, 75, 219, 236, 45, 99, 235, 33
27, 75, 306, 241, 47, 103, 298, 35
25, 67, 348, 248, 48, 100, 296, 35
25, 62, 351, 276, 51, 95, 302, 34
26, 65, 366, 268, 46, 92, 347, 36
27, 58, 356, 249, 45, 106, 330, 33
24, 52, 300, 278, 43, 109, 279, 31
26, 64, 280, 272, 45, 110, 288, 33
26, 59, 299, 221, 41, 109, 277, 32
25, 56, 274, 209, 41, 110, 222, 34
25, 56, 268, 199, 42, 77, 193, 33
27, 56, 269, 165, 45, 74, 191, 32
27, 42, 281, 203, 46, 69, 173, 32
29, 43, 322, 205, 48, 74, 209, 42
27, 45, 330, 212, 49, 81, 226, 40
29, 44, 362, 238, 55, 96, 237, 44
30, 51, 387, 250, 56, 92, 236, 45
34, 52, 360, 213, 55, 96, 245, 45
34, 60, 321, 229, 54, 95, 264, 34
37, 62, 328, 229, 52, 85, 242, 33
36, 63, 301, 204, 45, 66, 232, 29
34, 60, 260, 186, 40, 61, 221, 29
31, 59, 270, 183, 41, 75, 254, 31
30, 50, 259, 131, 38, 72, 196, 32
27, 46, 239, 119, 39, 77, 225, 33
23, 40, 281, 129, 38, 78, 230, 33
30, 39, 279, 203, 42, 104, 265, 35
29, 41, 284, 268, 39, 100, 236, 30
30, 40, 271, 272, 37, 96, 250, 31
31, 37, 269, 274, 37, 94, 226, 34
31, 39, 196, 270, 35, 97, 229, 34
26, 38, 181, 229, 29, 74, 188, 30
25, 34, 205, 219, 29, 62, 191, 32
24, 34, 222, 230, 34, 60, 160, 30
24, 38, 263, 246, 33, 57, 157, 24
25, 37, 283, 264, 41, 71, 219, 27
29, 41, 291, 263, 44, 97, 264, 37
29, 44, 283, 209, 44, 98, 249, 37
28, 45, 277, 206, 42, 99, 247, 36
28, 43, 235, 197, 43, 114, 289, 40
28, 43, 221, 171, 39, 105, 243, 38
28, 39, 226, 162, 35, 84, 201, 32
28, 35, 201, 164, 38, 86, 234, 31
28, 33, 204, 152, 39, 97, 303, 37
29, 34, 269, 191, 37, 79, 271, 37
29, 33, 270, 191, 41, 98, 299, 38
27, 33, 255, 188, 40, 100, 312, 46
44, 33, 261, 183, 39, 98, 303, 48
43, 35, 262, 186, 38, 94, 244, 45
45, 33, 210, 159, 40, 104, 242, 43
46, 36, 319, 208, 36, 86, 209, 43
46, 40, 335, 222, 36, 82, 209, 41
32, 43, 332, 231, 38, 106, 220, 82
38, 44, 341, 261, 40, 98, 217, 89
37, 44, 346, 251, 42, 96, 228, 90
38, 43, 270, 230, 47, 122, 280, 99
37, 42, 256, 238, 48, 124, 285, 112
37, 42, 269, 261, 51, 104, 269, 90
31, 40, 296, 248, 48, 109, 267, 84
30, 41, 293, 239, 44, 105, 273, 88
27, 38, 278, 219, 36, 69, 212, 79
28, 38, 287, 194, 39, 63, 185, 54
26, 35, 277, 174, 32, 60, 176, 49
28, 34, 261, 174, 39, 69, 244, 49
29, 37, 273, 185, 44, 81, 243, 40
29, 42, 301, 186, 43, 91, 256, 44
29, 40, 285, 180, 39, 96, 272, 63
30, 39, 296, 188, 41, 99, 283, 74
29, 37, 274, 164, 34, 93, 234, 74
27, 37, 260, 193, 33, 80, 211, 73
27, 30, 213, 196, 34, 71, 213, 70
27, 31, 203, 197, 35, 75, 211, 53
25, 33, 209, 188, 34, 71, 201, 35
24, 34, 197, 178, 35, 70, 212, 30
25, 32, 177, 136, 34, 67, 213, 30
25, 34, 176, 181, 34, 71, 211, 33
24, 33, 184, 218, 35, 63, 200, 41
26, 33, 156, 210, 34, 82, 204, 40
26, 34, 193, 210, 33, 82, 187, 43
25, 34, 209, 210, 30, 84, 188, 43
23, 34, 208, 167, 30, 78, 187, 41
24, 34, 202, 133, 30, 85, 215, 33
24, 32, 205, 130, 30, 82, 214, 35
23, 33, 208, 147, 36, 84, 211, 34
23, 36, 197, 146, 35, 82, 209, 33
24, 35, 194, 142, 38, 93, 228, 36
26, 37, 270, 179, 37, 86, 203, 93
26, 37, 261, 175, 36, 71, 191, 95
27, 37, 247, 182, 36, 65, 215, 96
28, 33, 246, 179, 38, 76, 232, 99
29, 36, 262, 185, 36, 69, 225, 99
27, 34, 217, 132, 36, 69, 228, 51
29, 35, 218, 130, 40, 72, 246, 46
33, 34, 198, 108, 39, 81, 236, 55
32, 34, 204, 110, 37, 73, 264, 53
35, 33, 203, 110, 35, 76, 253, 51
35, 33, 161, 110, 35, 76, 254, 50
32, 31, 181, 150, 35, 82, 259, 50
31, 30, 183, 150, 34, 78, 284, 40
32, 34, 215, 153, 39, 78, 259, 38
29, 32, 216, 151, 42, 80, 251, 42
28, 33, 222, 155, 41, 81, 253, 42
29, 34, 203, 117, 38, 84, 238, 41
28, 34, 215, 122, 37, 79, 189, 36
26, 32, 229, 136, 34, 81, 177, 36
27, 34, 215, 138, 36, 85, 219, 28
28, 32, 231, 140, 34, 82, 218, 29
27, 35, 245, 156, 33, 80, 218, 29
25, 34, 248, 156, 37, 81, 234, 28
24, 34, 198, 148, 37, 78, 232, 26
22, 32, 200, 160, 34, 64, 189, 26
21, 31, 175, 168, 35, 63, 174, 25
20, 30, 148, 175, 34, 50, 201, 25
22, 30, 136, 220, 35, 54, 204, 28
23, 30, 162, 265, 42, 55, 199, 27
27, 30, 165, 273, 44, 57, 223, 43
30, 31, 170, 279, 47, 66, 220, 82
41, 28, 176, 277, 48, 73, 198, 87
40, 31, 202, 253, 45, 69, 186, 87
41, 30, 210, 226, 38, 73, 210, 90
39, 30, 249, 228, 38, 80, 214, 86
37, 35, 268, 255, 37, 71, 243, 50
28, 36, 267, 247, 37, 70, 248, 50
28, 38, 278, 256, 36, 73, 273, 52
28, 42, 265, 250, 40, 69, 255, 47
26, 45, 284, 236, 38, 66, 256, 47
26, 40, 275, 187, 35, 66, 240, 46
23, 40, 284, 182, 32, 60, 230, 37
25, 35, 251, 147, 31, 55, 201, 43
27, 34, 254, 144, 30, 56, 201, 71
29, 32, 213, 134, 35, 81, 205, 76
30, 34, 208, 167, 38, 84, 198, 77
30, 34, 194, 172, 39, 94, 227, 84
30, 35, 233, 175, 40, 96, 225, 78
28, 32, 264, 174, 37, 98, 250, 58
26, 36, 248, 199, 33, 75, 227, 47
26, 34, 244, 195, 33, 76, 233, 45
26, 37, 257, 249, 36, 64, 222, 30
26, 39, 249, 290, 41, 62, 225, 34
27, 40, 218, 288, 41, 61, 221, 31
28, 35, 212, 293, 45, 66, 217, 34
28, 38, 221, 286, 46, 73, 236, 39
29, 35, 207, 242, 47, 73, 220, 77
28, 35, 198, 226, 44, 70, 212, 78
31, 37, 193, 224, 45, 71, 186, 81
30, 40, 190, 200, 41, 63, 186, 81
30, 40, 209, 190, 43, 56, 183, 80
31, 43, 211, 185, 40, 54, 179, 47
29, 40, 190, 136, 39, 50, 177, 44
30, 39, 177, 130, 44, 59, 206, 45
30, 37, 284, 126, 45, 58, 203, 44
30, 39, 264, 122, 40, 54, 171, 43
28, 34, 265, 115, 38, 59, 168, 42
29, 35, 266, 118, 40, 63, 209, 42
25, 31, 270, 168, 35, 47, 199, 35
27, 30, 142, 185, 34, 49, 209, 35
27, 26, 170, 197, 36, 54, 248, 33
27, 26, 164, 211, 42, 49, 253, 30
26, 25, 166, 231, 40, 57, 220, 30
26, 29, 159, 203, 38, 67, 222, 43
26, 32, 239, 193, 40, 73, 220, 68
24, 33, 234, 183, 41, 69, 181, 71
24, 33, 239, 189, 38, 71, 202, 72
25, 32, 233, 189, 39, 62, 240, 73
23, 33, 264, 206, 43, 54, 261, 67
24, 34, 245, 252, 46, 46, 263, 46
25, 32, 232, 260, 46, 51, 259, 44
25, 33, 220, 247, 44, 51, 237, 43
26, 34, 230, 229, 44, 53, 222, 72
26, 32, 199, 201, 41, 63, 191, 74
24, 29, 145, 133, 38, 62, 179, 71
24, 28, 159, 130, 36, 68, 204, 70
24, 27, 160, 146, 36, 70, 220, 73
26, 30, 155, 142, 37, 72, 207, 45
25, 30, 162, 150, 34, 72, 271, 41
26, 30, 191, 157, 37, 76, 276, 42
28, 31, 226, 191, 41, 75, 261, 42
28, 32, 250, 200, 44, 80, 269, 37
25, 31, 264, 219, 43, 80, 266, 34
30, 34, 292, 223, 47, 71, 181, 67
29, 33, 281, 225, 49, 70, 182, 75
27, 32, 259, 197, 48, 78, 186, 78
28, 33, 239, 175, 46, 73, 163, 80
29, 35, 223, 179, 48, 73, 157, 82
26, 33, 177, 170, 48, 86, 201, 57
25, 38, 180, 165, 43, 85, 239, 43
28, 42, 192, 178, 40, 73, 268, 43
25, 41, 230, 187, 38, 73, 271, 45
27, 40, 223, 164, 36, 74, 274, 45
26, 40, 239, 206, 33, 68, 256, 43
27, 35, 260, 198, 33, 84, 225, 81
28, 31, 237, 219, 32, 84, 180, 85
28, 32, 218, 219, 36, 83, 174, 84
28, 34, 226, 221, 34, 90, 196, 85
29, 33, 210, 181, 37, 89, 201, 85
29, 32, 170, 213, 41, 71, 193, 51
27, 32, 197, 183, 41, 85, 250, 45
27, 31, 199, 187, 38, 87, 255, 71
25, 31, 215, 216, 43, 78, 236, 72
25, 30, 230, 239, 42, 77, 231, 73
26, 38, 269, 218, 41, 88, 254, 75
26, 38, 269, 247, 44, 72, 202, 73
27, 39, 305, 265, 48, 76, 209, 51
26, 41, 328, 254, 47, 99, 247, 46
29, 41, 320, 233, 46, 99, 247, 82
28, 34, 282, 244, 44, 92, 222, 85
28, 34, 314, 300, 45, 101, 238, 85
29, 36, 284, 290, 45, 97, 230, 84
30, 32, 268, 300, 43, 71, 222, 84
25, 34, 273, 308, 45, 68, 220, 48
25, 35, 277, 299, 44, 64, 237, 37
24, 34, 223, 207, 41, 65, 262, 39
22, 31, 219, 201, 40, 66, 267, 34
21, 31, 221, 193, 40, 66, 236, 36
23, 31, 259, 212, 39, 68, 224, 44
24, 31, 309, 208, 38, 74, 249, 75
24, 33, 310, 204, 37, 78, 218, 83
26, 40, 322, 208, 36, 79, 225, 85
25, 39, 310, 224, 35, 77, 245, 84
24, 41, 306, 198, 34, 82, 266, 82
24, 41, 257, 197, 38, 83, 244, 57
26, 44, 278, 217, 38, 77, 232, 81
32, 41, 260, 219, 39, 82, 228, 97
34, 40, 263, 180, 38, 85, 253, 99
35, 40, 260, 191, 38, 85, 231, 100
35, 39, 261, 209, 36, 82, 222, 101
32, 38, 247, 190, 34, 77, 230, 75
29, 35, 262, 174, 33, 69, 221, 83
28, 35, 267, 174, 33, 68, 166, 90
27, 35, 239, 161, 35, 65, 228, 89
27, 35, 239, 156, 39, 67, 231, 88
27, 34, 321, 186, 48, 80, 227, 88
28, 36, 314, 181, 49, 89, 248, 63
28, 37, 294, 176, 52, 90, 254, 47
31, 35, 294, 206, 51, 88, 205, 47
32, 38, 296, 217, 50, 88, 200, 48
34, 39, 238, 215, 47, 108, 282, 86
44, 39, 231, 227, 48, 101, 266, 89
58, 39, 250, 236, 45, 101, 263, 90
80, 41, 276, 220, 47, 102, 271, 97
160, 39, 305, 210, 44, 117, 307, 276
167, 39, 291, 218, 39, 85, 223, 278
170, 39, 339, 214, 39, 83, 213, 284
168, 47, 394, 214, 40, 84, 226, 286
159, 47, 385, 244, 39, 87, 243, 289
82, 47, 378, 232, 41, 63, 184, 133
67, 50, 384, 212, 39, 79, 214, 112
51, 48, 344, 209, 44, 97, 239, 113
53, 44, 280, 223, 46, 97, 231, 111
51, 45, 266, 204, 45, 89, 210, 100
50, 57, 437, 296, 45, 88, 229, 96
47, 56, 435, 334, 51, 83, 220, 91
46, 57, 448, 345, 52, 80, 223, 66
38, 55, 440, 341, 52, 75, 221, 65
38, 54, 447, 339, 54, 78, 224, 65
33, 38, 306, 276, 57, 96, 241, 64
32, 35, 313, 293, 59, 98, 268, 63
34, 36, 317, 301, 63, 84, 251, 68
30, 36, 375, 311, 63, 87, 262, 59
32, 39, 379, 301, 61, 86, 254, 79
32, 41, 357, 299, 61, 75, 248, 81
34, 42, 355, 243, 54, 65, 223, 80
39, 44, 399, 217, 47, 81, 219, 73
45, 49, 359, 196, 46, 88, 218, 86
42, 46, 367, 205, 45, 86, 235, 67
41, 43, 374, 221, 41, 81, 212, 62
42, 43, 363, 226, 49, 87, 210, 62
34, 41, 312, 221, 46, 77, 208, 85
27, 36, 311, 255, 47, 72, 189, 77
28, 37, 308, 243, 50, 78, 176, 76
29, 37, 303, 216, 52, 83, 229, 76
25, 37, 295, 241, 43, 83, 216, 78
26, 32, 274, 250, 41, 98, 221, 48
26, 32, 262, 210, 43, 105, 252, 40
25, 29, 244, 225, 40, 104, 244, 38
27, 34, 253, 225, 35, 97, 206, 38
29, 34, 265, 230, 40, 92, 260, 48
28, 34, 253, 225, 40, 75, 279, 72
27, 34, 253, 231, 39, 64, 258, 77
27, 37, 275, 246, 40, 63, 257, 78
26, 37, 278, 256, 42, 70, 307, 78
25, 38, 264, 223, 37, 66, 261, 73
23, 39, 278, 214, 37, 68, 255, 50
23, 40, 279, 225, 32, 65, 255, 43
21, 37, 273, 209, 34, 70, 265, 42
22, 34, 272, 232, 35, 61, 204, 41
24, 36, 293, 264, 41, 65, 216, 37
27, 40, 287, 269, 46, 70, 186, 34
30, 37, 278, 252, 47, 89, 298, 37
32, 39, 252, 275, 51, 83, 287, 35
31, 42, 258, 267, 54, 94, 287, 37
32, 42, 255, 253, 50, 92, 278, 36
30, 37, 245, 247, 45, 88, 321, 35
30, 37, 242, 246, 45, 74, 215, 33
30, 36, 249, 205, 37, 81, 228, 34
30, 37, 219, 197, 32, 65, 216, 30
28, 31, 178, 182, 32, 77, 226, 33
29, 39, 244, 231, 33, 86, 219, 33
28, 42, 290, 255, 36, 89, 225, 30
28, 42, 293, 253, 38, 85, 236, 28
27, 41, 298, 232, 40, 86, 249, 34
26, 44, 320, 213, 41, 76, 238, 31
26, 39, 285, 196, 51, 63, 206, 30
24, 35, 247, 155, 49, 54, 209, 28
25, 34, 264, 157, 49, 60, 196, 31
25, 36, 258, 189, 53, 60, 189, 25
24, 33, 254, 193, 53, 62, 192, 29
26, 33, 247, 175, 45, 86, 265, 42
29, 35, 249, 214, 46, 85, 279, 43
27, 35, 225, 209, 44, 83, 274, 43
28, 32, 212, 179, 37, 86, 277, 43
29, 35, 228, 199, 39, 89, 301, 42
29, 36, 230, 194, 44, 70, 255, 34
28, 37, 292, 217, 49, 83, 239, 33
30, 39, 298, 227, 52, 80, 238, 32
29, 41, 369, 291, 59, 89, 273, 36
30, 42, 376, 294, 59, 90, 243, 36
29, 46, 429, 299, 56, 94, 222, 33
26, 47, 389, 272, 57, 102, 271, 37
25, 48, 392, 275, 56, 116, 276, 36
25, 46, 379, 256, 50, 113, 255, 35
26, 42, 360, 239, 49, 111, 299, 61
25, 42, 300, 253, 51, 122, 305, 66
28, 45, 367, 257, 46, 108, 282, 66
32, 47, 400, 246, 47, 95, 282, 72
32, 49, 367, 207, 44, 102, 271, 70
31, 50, 369, 206, 55, 126, 256, 55
32, 47, 376, 168, 56, 119, 282, 61
32, 45, 338, 227, 58, 122, 262, 60
30, 42, 404, 267, 56, 131, 257, 63
33, 43, 389, 279, 58, 137, 311, 69
70, 55, 406, 278, 47, 123, 296, 71
74, 64, 403, 275, 43, 114, 258, 85
75, 66, 395, 207, 38, 111, 265, 85
77, 86, 291, 151, 38, 118, 281, 82
77, 91, 343, 139, 36, 106, 224, 78
50, 87, 413, 150, 41, 117, 247, 101
44, 86, 412, 169, 39, 116, 243, 95
44, 88, 412, 169, 40, 119, 239, 98
39, 71, 418, 194, 42, 105, 222, 96
39, 67, 459, 201, 45, 100, 208, 96
34, 67, 380, 197, 40, 76, 159, 67
31, 63, 380, 186, 44, 86, 189, 47
47, 56, 370, 190, 44, 87, 210, 65
52, 56, 352, 185, 44, 85, 202, 72
51, 54, 248, 171, 44, 83, 200, 73
51, 49, 237, 187, 47, 83, 202, 74
52, 46, 229, 184, 45, 83, 215, 75
36, 49, 271, 199, 48, 77, 183, 74
31, 45, 278, 181, 47, 72, 183, 74
38, 42, 272, 167, 48, 75, 221, 75
39, 46, 273, 158, 51, 92, 247, 74
46, 45, 277, 172, 47, 85, 219, 75
48, 46, 243, 176, 45, 85, 247, 75
79, 44, 297, 195, 44, 90, 281, 84
87, 47, 281, 203, 39, 104, 276, 87
95, 43, 279, 187, 34, 92, 287, 89
92, 44, 274, 177, 37, 91, 282, 88
92, 41, 254, 168, 37, 91, 257, 83
70, 42, 173, 147, 37, 89, 235, 89
54, 47, 171, 160, 38, 74, 213, 88
39, 50, 282, 186, 39, 73, 162, 88
43, 51, 301, 185, 38, 76, 185, 87
50, 48, 316, 183, 38, 84, 230, 97
72, 51, 339, 206, 43, 87, 223, 100
86, 44, 351, 183, 41, 81, 222, 101
87, 44, 341, 166, 39, 90, 238, 102
85, 48, 340, 168, 43, 92, 268, 104
86, 51, 345, 164, 40, 96, 223, 99
68, 48, 321, 143, 35, 95, 213, 77
50, 49, 345, 159, 39, 114, 282, 81
53, 46, 287, 180, 42, 106, 276, 85
64, 41, 281, 189, 40, 103, 239, 84
73, 45, 260, 191, 40, 92, 259, 95
83, 52, 299, 202, 45, 93, 303, 101
85, 52, 261, 197, 44, 70, 245, 102
85, 52, 236, 178, 42, 69, 246, 98
77, 52, 249, 169, 42, 82, 259, 118
61, 49, 300, 170, 45, 79, 257, 96
50, 40, 265, 150, 40, 72, 218, 89
51, 39, 275, 145, 39, 72, 233, 83
48, 42, 286, 133, 38, 81, 237, 81
46, 42, 282, 132, 40, 72, 216, 51
44, 39, 240, 106, 40, 74, 202, 83
36, 39, 234, 102, 38, 77, 226, 85
39, 41, 234, 101, 37, 84, 213, 100
36, 37, 237, 126, 42, 80, 232, 101
37, 38, 217, 144, 37, 75, 300, 101
40, 36, 215, 143, 38, 86, 335, 97
39, 37, 240, 156, 39, 89, 319, 99
28, 34, 218, 154, 39, 79, 323, 81
29, 38, 239, 164, 35, 75, 298, 80
28, 38, 280, 167, 34, 78, 263, 78
66, 40, 273, 177, 29, 76, 211, 73
70, 42, 255, 173, 29, 73, 203, 68
71, 42, 276, 178, 31, 83, 225, 88
73, 41, 281, 171, 30, 78, 227, 89
74, 38, 257, 169, 36, 83, 212, 98
41, 35, 266, 169, 35, 79, 259, 87
37, 32, 275, 198, 37, 74, 264, 93
37, 31, 261, 196, 38, 65, 224, 74
34, 33, 280, 190, 37, 67, 230, 73
35, 33, 256, 177, 32, 57, 223, 64
34, 35, 247, 193, 32, 58, 206, 77
32, 34, 238, 157, 33, 58, 197, 72
30, 34, 260, 164, 31, 57, 199, 71
33, 34, 253, 150, 33, 61, 210, 72
38, 35, 260, 166, 36, 64, 208, 71
42, 36, 281, 139, 37, 58, 172, 70
44, 40, 280, 150, 37, 62, 166, 72
44, 40, 254, 137, 34, 72, 227, 73
41, 36, 217, 150, 34, 72, 210, 72
33, 38, 221, 131, 33, 74, 209, 73
28, 35, 229, 142, 32, 73, 202, 51
27, 37, 335, 186, 34, 73, 232, 52
41, 38, 341, 194, 35, 68, 189, 94
43, 37, 337, 197, 37, 65, 203, 100
44, 36, 351, 215, 37, 58, 185, 99
45, 36, 334, 211, 37, 64, 211, 99
45, 35, 263, 175, 34, 63, 197, 95
33, 34, 256, 177, 36, 61, 189, 63
31, 38, 283, 199, 34, 67, 186, 71
39, 37, 261, 188, 35, 72, 201, 72
38, 39, 268, 186, 36, 65, 180, 73
38, 38, 264, 181, 36, 62, 193, 74
43, 41, 302, 218, 44, 70, 190, 83
43, 37, 283, 182, 44, 67, 226, 92
34, 39, 273, 199, 44, 59, 229, 93
34, 37, 266, 201, 45, 64, 230, 93
39, 36, 263, 208, 43, 78, 273, 93
42, 36, 245, 171, 38, 76, 289, 88
42, 37, 253, 204, 36, 73, 263, 64
45, 36, 281, 238, 37, 73, 250, 76
45, 39, 305, 237, 37, 75, 277, 77
41, 39, 276, 231, 40, 87, 237, 80
32, 35, 250, 225, 35, 80, 214, 70
30, 40, 246, 196, 40, 84, 244, 68
26, 41, 257, 118, 38, 84, 260, 59
28, 39, 231, 107, 37, 86, 240, 78
40, 39, 245, 150, 35, 72, 215, 79
40, 40, 252, 176, 37, 82, 253, 80
43, 37, 247, 197, 31, 80, 219, 84
44, 35, 230, 202, 35, 83, 223, 78
43, 34, 235, 209, 38, 81, 209, 54
32, 33, 224, 192, 36, 70, 217, 47
34, 39, 235, 163, 37, 61, 203, 85
35, 38, 247, 162, 38, 57, 198, 97
33, 40, 237, 165, 38, 53, 182, 98
33, 39, 221, 178, 36, 45, 199, 99
43, 40, 225, 166, 37, 60, 202, 99
41, 36, 257, 174, 36, 62, 191, 71
38, 37, 245, 166, 35, 61, 184, 47
39, 36, 250, 189, 37, 66, 200, 67
39, 36, 247, 190, 37, 72, 221, 67
29, 37, 267, 197, 38, 63, 207, 72
30, 36, 231, 191, 39, 61, 214, 74
30, 34, 229, 198, 41, 63, 230, 75
38, 32, 211, 170, 37, 57, 232, 54
39, 33, 238, 152, 38, 58, 209, 51
40, 32, 211, 149, 37, 61, 260, 72
38, 34, 222, 188, 38, 57, 245, 69
38, 33, 204, 177, 38, 55, 242, 68
29, 34, 222, 179, 41, 69, 231, 68
29, 34, 201, 191, 42, 71, 241, 76
45, 35, 213, 209, 42, 66, 189, 53
46, 31, 206, 182, 43, 73, 185, 50
47, 31, 228, 177, 41, 73, 169, 51
48, 36, 226, 208, 38, 66, 169, 78
50, 34, 235, 201, 37, 75, 160, 76
33, 35, 218, 189, 34, 74, 149, 73
33, 35, 215, 181, 31, 69, 143, 75
33, 38, 211, 186, 30, 69, 169, 75
34, 34, 193, 171, 34, 75, 170, 48
47, 38, 192, 167, 36, 63, 186, 43
47, 38, 214, 192, 38, 63, 190, 42
50, 41, 215, 208, 44, 70, 199, 76
49, 40, 240, 225, 45, 70, 185, 78
48, 42, 243, 226, 43, 58, 177, 80
33, 43, 277, 239, 42, 59, 192, 79
33, 43, 286, 219, 40, 69, 197, 80
27, 39, 281, 210, 34, 69, 201, 50
29, 41, 260, 183, 36, 80, 228, 47
29, 39, 287, 157, 38, 82, 248, 41
29, 38, 280, 172, 38, 82, 224, 56
43, 37, 272, 189, 39, 100, 281, 63
43, 37, 269, 199, 38, 100, 285, 61
45, 38, 287, 204, 34, 93, 270, 61
46, 39, 269, 208, 36, 95, 263, 62
46, 36, 238, 248, 36, 93, 270, 50
35, 38, 222, 234, 37, 61, 220, 40
33, 37, 226, 225, 37, 54, 205, 38
31, 36, 255, 235, 41, 59, 219, 34
29, 32, 265, 233, 35, 56, 199, 32
29, 33, 271, 175, 33, 52, 179, 32
28, 32, 290, 172, 34, 57, 201, 48
46, 33, 292, 170, 38, 60, 214, 72
47, 30, 235, 154, 36, 59, 196, 83
49, 35, 242, 159, 40, 58, 202, 88
47, 33, 240, 153, 39, 65, 215, 87
47, 35, 261, 164, 36, 62, 181, 80
33, 36, 276, 174, 35, 56, 174, 59
29, 38, 314, 173, 34, 62, 183, 74
29, 38, 332, 173, 32, 66, 177, 74
38, 38, 331, 155, 30, 63, 164, 77
39, 37, 298, 125, 32, 66, 164, 76
38, 38, 288, 146, 33, 84, 200, 79
38, 37, 255, 178, 35, 80, 213, 56
36, 32, 206, 189, 38, 74, 206, 46
25, 35, 237, 210, 39, 70, 207, 38
24, 33, 256, 218, 38, 76, 244, 71
25, 31, 276, 219, 38, 64, 240, 77
40, 32, 275, 206, 37, 60, 236, 80
41, 36, 296, 221, 36, 64, 254, 82
43, 38, 265, 203, 36, 64, 270, 83
44, 41, 299, 201, 37, 60, 245, 60
43, 41, 272, 195, 42, 64, 215, 77
32, 41, 280, 186, 44, 71, 201, 75
29, 39, 266, 154, 42, 68, 232, 77
28, 39, 304, 155, 45, 83, 239, 78
27, 38, 283, 170, 45, 79, 234, 77
28, 39, 284, 144, 40, 73, 233, 49
27, 39, 270, 140, 40, 77, 263, 44
26, 39, 249, 125, 39, 78, 229, 39
27, 37, 209, 134, 39, 64, 216, 32
26, 33, 184, 144, 39, 62, 221, 44
27, 31, 193, 177, 44, 65, 246, 62
26, 33, 198, 192, 47, 70, 221, 71
27, 34, 204, 216, 48, 73, 219, 76
25, 32, 208, 233, 44, 71, 211, 76
25, 38, 210, 240, 46, 71, 222, 71
26, 41, 226, 220, 39, 82, 226, 56
29, 41, 227, 236, 36, 72, 231, 44
27, 39, 307, 226, 37, 67, 225, 36
28, 38, 341, 241, 42, 68, 214, 34
30, 36, 352, 234, 41, 79, 202, 66
26, 33, 376, 241, 45, 77, 208, 71
28, 33, 375, 233, 43, 72, 187, 71
31, 33, 319, 232, 44, 78, 188, 72
30, 32, 280, 215, 40, 78, 201, 73
32, 32, 297, 245, 40, 78, 203, 47
50, 35, 256, 241, 38, 64, 168, 91
49, 33, 264, 245, 38, 67, 191, 93
50, 34, 266, 256, 42, 72, 258, 98
52, 35, 305, 248, 44, 72, 253, 99
52, 36, 277, 208, 44, 64, 254, 100
36, 38, 306, 277, 44, 75, 279, 57
34, 39, 301, 268, 42, 75, 265, 59
32, 41, 293, 259, 36, 68, 211, 79
29, 39, 248, 257, 31, 75, 208, 80
26, 46, 263, 252, 29, 73, 202, 79
31, 42, 246, 174, 29, 73, 175, 81
38, 43, 254, 173, 32, 73, 192, 80
45, 44, 271, 167, 32, 81, 189, 53
47, 45, 275, 160, 33, 75, 184, 76
47, 38, 250, 185, 36, 74, 175, 79
46, 37, 223, 193, 34, 70, 188, 76
41, 38, 229, 181, 35, 71, 200, 75
34, 36, 245, 208, 36, 77, 206, 74
33, 39, 276, 231, 40, 76, 215, 48
30, 38, 278, 213, 41, 76, 219, 40
28, 38, 275, 198, 41, 73, 243, 41
29, 38, 284, 195, 39, 80, 228, 36
29, 38, 246, 169, 38, 64, 216, 37
27, 34, 214, 142, 34, 65, 236, 37
27, 32, 220, 148, 30, 71, 276, 40
28, 34, 251, 162, 32, 80, 255, 68
30, 32, 270, 180, 33, 70, 277, 71
36, 32, 328, 181, 36, 77, 287, 71
37, 37, 320, 171, 36, 81, 308, 72
39, 39, 337, 160, 36, 77, 298, 70
38, 41, 328, 191, 38, 74, 287, 51
37, 41, 308, 176, 35, 74, 271, 52
28, 40, 241, 172, 35, 78, 266, 72
36, 35, 245, 185, 36, 81, 225, 75
44, 34, 241, 192, 41, 81, 189, 77
44, 33, 242, 161, 38, 74, 192, 70
45, 34, 218, 192, 40, 100, 213, 68
49, 36, 288, 189, 39, 94, 212, 93
44, 41, 322, 192, 37, 91, 209, 97
35, 40, 327, 192, 34, 87, 206, 97
44, 40, 318, 179, 34, 93, 238, 100
41, 37, 335, 167, 35, 65, 207, 100
38, 35, 290, 168, 38, 81, 206, 56
37, 30, 264, 159, 38, 87, 268, 54
40, 32, 218, 146, 38, 93, 277, 76
32, 29, 224, 165, 39, 89, 241, 80
32, 33, 257, 169, 37, 92, 248, 82
31, 31, 269, 169, 34, 76, 268, 84
30, 34, 264, 161, 34, 70, 206, 79
27, 34, 284, 167, 34, 61, 197, 57
24, 36, 278, 157, 32, 59, 213, 46
28, 45, 250, 133, 33, 66, 225, 66
28, 48, 221, 142, 33, 71, 210, 69
31, 47, 225, 138, 31, 71, 212, 73
48, 47, 230, 131, 30, 82, 226, 85
48, 48, 254, 181, 32, 85, 224, 88
47, 42, 267, 211, 34, 80, 212, 71
48, 39, 273, 201, 34, 74, 213, 66
48, 39, 281, 222, 36, 75, 231, 60
32, 38, 274, 228, 38, 72, 237, 39
32, 36, 252, 197, 35, 66, 218, 30
32, 31, 221, 161, 37, 67, 239, 33
32, 34, 230, 174, 40, 81, 280, 63
29, 33, 205, 146, 39, 75, 260, 65
28, 32, 186, 134, 39, 68, 238, 65
28, 39, 242, 125, 54, 71, 237, 67
25, 42, 284, 117, 51, 66, 221, 67
25, 44, 287, 105, 52, 67, 161, 40
26, 44, 289, 110, 53, 72, 154, 37
27, 46, 297, 120, 55, 70, 164, 39
29, 43, 242, 126, 44, 80, 273, 75
30, 41, 208, 139, 42, 79, 271, 77
28, 38, 191, 159, 38, 80, 274, 76
27, 42, 275, 165, 37, 79, 292, 77
28, 42, 294, 172, 32, 84, 300, 78
36, 39, 303, 171, 30, 77, 218, 75
35, 39, 293, 164, 33, 89, 208, 75
37, 39, 301, 150, 35, 79, 214, 78
37, 39, 252, 153, 36, 84, 205, 78
38, 38, 254, 141, 37, 85, 225, 78
29, 41, 287, 156, 39, 89, 247, 50
29, 41, 289, 166, 36, 79, 261, 45
28, 40, 286, 160, 34, 77, 251, 42
29, 39, 280, 159, 38, 77, 252, 67
31, 41, 281, 161, 38, 71, 247, 75
30, 40, 269, 146, 37, 66, 246, 74
31, 39, 280, 178, 40, 66, 230, 77
30, 39, 271, 187, 40, 65, 228, 77
30, 36, 259, 180, 36, 73, 277, 56
29, 33, 227, 191, 36, 74, 259, 40
27, 32, 215, 218, 36, 69, 235, 38
27, 33, 193, 183, 35, 67, 235, 73
26, 33, 231, 176, 35, 67, 232, 77
27, 35, 229, 183, 36, 52, 172, 77
26, 38, 276, 192, 36, 61, 158, 79
29, 38, 274, 154, 35, 60, 169, 79
28, 38, 272, 163, 36, 68, 198, 46
28, 36, 270, 165, 36, 72, 194, 37
28, 36, 277, 168, 34, 69, 186, 34
31, 35, 253, 151, 38, 75, 207, 37
32, 32, 231, 152, 38, 82, 258, 69
31, 33, 253, 153, 35, 77, 249, 69
33, 35, 231, 161, 38, 75, 252, 74
33, 36, 253, 175, 43, 77, 278, 76
31, 36, 232, 172, 42, 73, 299, 76
27, 35, 247, 175, 42, 70, 252, 50
28, 34, 234, 176, 44, 72, 242, 48
28, 37, 252, 165, 42, 71, 250, 42
27, 37, 253, 153, 39, 69, 225, 38
25, 36, 258, 153, 36, 62, 192, 39
27, 38, 246, 163, 36, 63, 192, 65
29, 38, 239, 156, 34, 57, 204, 69
26, 34, 251, 159, 31, 61, 194, 68
25, 34, 221, 167, 32, 64, 197, 69
25, 40, 242, 159, 34, 72, 201, 67
25, 39, 265, 161, 33, 67, 194, 41
24, 41, 259, 202, 42, 76, 190, 36
25, 43, 268, 201, 46, 77, 182, 37
27, 43, 271, 191, 45, 76, 210, 45
27, 39, 290, 199, 43, 84, 228, 70
27, 40, 276, 206, 46, 83, 237, 73
28, 40, 278, 185, 37, 74, 224, 73
29, 39, 237, 194, 34, 73, 238, 74
28, 37, 288, 214, 38, 90, 206, 71
27, 36, 249, 223, 40, 74, 179, 46
27, 35, 243, 205, 38, 74, 169, 38
25, 31, 263, 214, 38, 77, 184, 38
26, 31, 292, 220, 41, 78, 204, 41
24, 32, 249, 207, 37, 57, 200, 36
27, 33, 288, 230, 39, 60, 246, 47
27, 34, 296, 239, 39, 60, 249, 65
27, 35, 280, 220, 42, 61, 258, 65
27, 32, 255, 203, 38, 63, 257, 67
27, 31, 255, 191, 36, 63, 261, 68
25, 30, 210, 144, 34, 61, 216, 60
28, 31, 208, 173, 39, 72, 218, 44
27, 33, 239, 205, 42, 68, 204, 43
26, 36, 278, 232, 45, 72, 215, 35
26, 39, 276, 231, 46, 70, 207, 36
26, 41, 283, 240, 48, 71, 207, 38
25, 42, 283, 217, 44, 63, 208, 33
27, 41, 261, 178, 39, 62, 231, 32
27, 39, 222, 172, 42, 57, 201, 33
30, 37, 200, 201, 43, 58, 205, 30
29, 35, 192, 190, 40, 54, 199, 28
27, 33, 205, 216, 47, 60, 242, 31
27, 34, 217, 230, 48, 60, 212, 28
26, 35, 210, 222, 46, 65, 223, 30
25, 35, 205, 191, 45, 73, 234, 30
26, 34, 204, 194, 44, 75, 245, 31
26, 34, 279, 157, 38, 67, 196, 30
25, 31, 276, 158, 39, 71, 204, 31
27, 31, 270, 137, 34, 66, 205, 63
26, 31, 280, 139, 37, 55, 197, 67
24, 33, 308, 162, 37, 55, 181, 68
26, 36, 285, 181, 40, 56, 188, 68
25, 37, 270, 167, 38, 51, 182, 68
25, 37, 297, 193, 40, 51, 174, 41
23, 36, 307, 218, 38, 51, 162, 34
25, 36, 288, 277, 49, 54, 174, 63
27, 32, 251, 312, 50, 54, 177, 67
27, 33, 267, 320, 49, 52, 201, 68
26, 34, 267, 315, 49, 63, 233, 69
27, 32, 270, 306, 49, 65, 236, 70
28, 34, 260, 240, 41, 58, 236, 43
28, 38, 283, 186, 34, 61, 249, 38
29, 42, 278, 185, 36, 66, 242, 35
29, 41, 248, 173, 37, 60, 251, 35
29, 43, 226, 168, 36, 61, 265, 35
29, 42, 222, 167, 37, 66, 296, 35
26, 40, 171, 155, 39, 71, 290, 37
26, 40, 185, 141, 38, 75, 294, 40
26, 39, 196, 148, 36, 67, 257, 63
26, 39, 200, 145, 40, 75, 249, 67
25, 40, 221, 176, 40, 75, 215, 68
25, 41, 225, 200, 42, 69, 205, 68
25, 40, 218, 202, 45, 67, 210, 67
26, 41, 259, 193, 46, 71, 231, 45
29, 40, 272, 195, 41, 62, 220, 38
30, 43, 287, 177, 42, 67, 219, 36
34, 43, 321, 156, 39, 73, 231, 47
34, 39, 313, 167, 37, 68, 218, 47
33, 40, 288, 169, 36, 63, 218, 46
31, 41, 288, 176, 39, 63, 217, 48
29, 35, 268, 198, 39, 66, 216, 48
27, 32, 220, 201, 43, 68, 247, 37
27, 32, 248, 187, 42, 73, 245, 36
29, 34, 284, 185, 41, 74, 218, 34
30, 35, 298, 185, 41, 80, 228, 33
30, 34, 307, 172, 40, 72, 235, 32
28, 35, 303, 178, 34, 69, 179, 30
25, 34, 277, 179, 34, 63, 166, 28
24, 32, 241, 201, 38, 63, 175, 29
24, 31, 251, 208, 39, 68, 166, 31
24, 32, 224, 200, 39, 66, 151, 33
25, 31, 225, 186, 38, 63, 152, 60
28, 34, 250, 185, 38, 63, 228, 62
29, 34, 265, 171, 35, 67, 230, 63
30, 35, 249, 161, 35, 56, 229, 64
31, 36, 256, 147, 34, 64, 242, 67
30, 37, 254, 151, 33, 65, 264, 44
29, 36, 244, 151, 33, 67, 215, 42
28, 36, 265, 169, 36, 59, 210, 43
26, 35, 243, 175, 34, 72, 232, 38
24, 34, 239, 174, 34, 81, 215, 31
26, 40, 240, 197, 37, 84, 232, 31
32, 43, 233, 202, 41, 106, 314, 66
34, 41, 183, 186, 38, 108, 316, 66
32, 39, 198, 177, 37, 102, 303, 68
34, 40, 210, 196, 37, 90, 317, 70
34, 35, 252, 183, 37, 88, 287, 70
29, 31, 282, 182, 34, 65, 188, 67
27, 34, 275, 175, 32, 66, 204, 72
34, 36, 272, 174, 34, 61, 227, 82
33, 38, 293, 157, 37, 62, 209, 83
31, 38, 291, 154, 37, 59, 217, 84
32, 41, 268, 143, 38, 63, 230, 66
33, 38, 302, 149, 42, 77, 222, 82
26, 37, 293, 158, 45, 86, 186, 76
28, 36, 269, 157, 41, 84, 219, 85
29, 36, 228, 143, 41, 91, 228, 87
26, 31, 214, 144, 37, 88, 222, 86
26, 30, 163, 153, 34, 74, 241, 67
27, 38, 225, 158, 33, 78, 262, 61
30, 42, 226, 156, 35, 78, 262, 48
29, 44, 229, 155, 32, 72, 294, 43
32, 47, 223, 169, 37, 75, 296, 71
37, 49, 229, 159, 39, 82, 290, 80
37, 43, 171, 168, 36, 90, 341, 83
34, 41, 159, 170, 35, 90, 323, 84
36, 38, 179, 171, 36, 88, 299, 84
39, 39, 252, 188, 32, 86, 308, 79
35, 40, 268, 192, 29, 82, 319, 76
36, 39, 288, 165, 28, 60, 249, 74
37, 39, 288, 159, 28, 59, 239, 72
39, 38, 291, 177, 32, 74, 241, 83
33, 34, 278, 182, 37, 78, 230, 70
31, 30, 265, 172, 37, 75, 188, 60
29, 30, 285, 179, 37, 71, 206, 80
28, 29, 300, 196, 39, 79, 221, 85
30, 30, 318, 182, 37, 73, 218, 76
34, 32, 317, 139, 33, 65, 206, 85
35, 36, 343, 153, 33, 72, 217, 87
36, 38, 338, 178, 35, 82, 245, 78
43, 39, 343, 164, 38, 81, 263, 91
40, 41, 345, 167, 37, 74, 243, 93
39, 44, 325, 167, 38, 74, 243, 85
38, 46, 297, 158, 36, 69, 255, 85
38, 50, 273, 118, 39, 78, 244, 75
30, 48, 265, 133, 35, 69, 208, 52
33, 48, 230, 131, 35, 73, 220, 55
32, 44, 224, 131, 34, 89, 272, 77
41, 40, 253, 168, 37, 90, 266, 81
42, 39, 272, 203, 37, 77, 234, 81
43, 46, 289, 195, 37, 85, 291, 86
41, 46, 338, 221, 36, 94, 318, 93
43, 49, 373, 237, 35, 77, 273, 91
35, 53, 360, 217, 37, 78, 271, 89
33, 52, 401, 189, 34, 80, 307, 90
34, 51, 392, 188, 34, 80, 267, 92
34, 50, 368, 154, 36, 73, 245, 92
32, 47, 340, 148, 37, 82, 252, 84
31, 45, 337, 172, 39, 84, 265, 84
32, 42, 262, 164, 38, 84, 219, 84
30, 39, 291, 168, 37, 84, 280, 74
38, 39, 287, 169, 37, 83, 271, 59
37, 48, 282, 158, 36, 75, 264, 52
41, 49, 270, 120, 33, 84, 286, 76
40, 48, 284, 134, 35, 78, 305, 74
38, 48, 284, 184, 41, 71, 249, 77
29, 48, 255, 189, 40, 75, 248, 77
30, 37, 234, 184, 40, 76, 252, 74
30, 36, 235, 187, 39, 67, 216, 79
29, 32, 239, 197, 38, 71, 196, 82
32, 37, 242, 198, 38, 79, 197, 87
35, 39, 268, 286, 41, 72, 203, 88
35, 40, 276, 298, 44, 73, 224, 89
32, 41, 287, 314, 44, 69, 213, 63
32, 42, 281, 320, 46, 68, 213, 56
30, 39, 230, 329, 46, 77, 227, 44
29, 35, 224, 262, 46, 82, 224, 40
30, 39, 228, 250, 50, 82, 199, 37
30, 36, 272, 258, 49, 84, 195, 39
29, 38, 361, 239, 46, 95, 213, 70
30, 38, 403, 217, 44, 80, 210, 73
32, 43, 430, 225, 44, 81, 223, 88
29, 41, 456, 232, 37, 84, 239, 88
33, 41, 434, 222, 38, 84, 267, 88
36, 42, 383, 221, 41, 81, 253, 71
38, 51, 368, 193, 39, 80, 245, 83
43, 49, 341, 178, 34, 75, 223, 67
42, 49, 303, 183, 39, 67, 202, 69
45, 52, 302, 190, 45, 67, 169, 75
44, 52, 287, 197, 43, 59, 208, 72
42, 46, 252, 250, 43, 72, 251, 58
36, 46, 282, 278, 49, 72, 264, 57
36, 48, 304, 270, 46, 73, 264, 73
30, 45, 291, 257, 42, 69, 265, 66
30, 43, 276, 254, 46, 68, 242, 65
29, 40, 285, 216, 53, 74, 213, 68
28, 40, 235, 169, 48, 78, 219, 71
28, 35, 208, 193, 50, 76, 217, 49
30, 35, 231, 206, 51, 77, 224, 44
33, 35, 242, 205, 48, 79, 235, 58
32, 35, 240, 201, 40, 63, 238, 73
39, 31, 246, 201, 40, 59, 216, 74
38, 38, 258, 173, 38, 57, 213, 76
38, 38, 256, 178, 33, 63, 205, 77
36, 39, 279, 173, 31, 57, 210, 69
35, 37, 275, 164, 33, 55, 170, 44
27, 39, 273, 164, 32, 59, 205, 40
29, 33, 263, 176, 33, 67, 213, 36
28, 34, 259, 165, 35, 58, 214, 36
24, 34, 227, 191, 39, 57, 186, 32
27, 36, 226, 233, 42, 74, 186, 34
30, 38, 238, 237, 46, 93, 212, 38
28, 39, 225, 228, 46, 87, 218, 38
29, 38, 264, 221, 47, 88, 207, 67
30, 37, 298, 221, 47, 87, 206, 69
30, 35, 323, 194, 46, 81, 247, 73
33, 35, 331, 246, 43, 58, 225, 84
34, 35, 354, 256, 43, 59, 216, 85
35, 34, 329, 254, 42, 71, 241, 66
34, 35, 340, 236, 43, 77, 274, 65
35, 36, 342, 225, 43, 80, 264, 80
43, 36, 320, 165, 43, 84, 318, 94
43, 38, 339, 155, 42, 87, 315, 94
44, 39, 338, 155, 42, 76, 300, 94
45, 40, 290, 160, 39, 83, 300, 94
42, 43, 274, 160, 40, 71, 308, 78
32, 44, 277, 167, 42, 70, 255, 73
33, 42, 233, 187, 43, 67, 260, 75
31, 43, 258, 216, 45, 72, 259, 75
31, 42, 253, 218, 44, 69, 265, 78
31, 39, 230, 206, 41, 75, 230, 77
28, 38, 256, 235, 37, 66, 198, 48
28, 38, 271, 229, 35, 73, 201, 51
32, 37, 244, 196, 31, 76, 241, 58
31, 35, 255, 187, 29, 70, 204, 66
31, 37, 293, 192, 26, 79, 246, 71
32, 40, 346, 157, 29, 82, 252, 73
32, 43, 395, 140, 32, 77, 295, 67
27, 43, 406, 152, 31, 77, 293, 61
39, 45, 399, 174, 36, 94, 311, 90
41, 49, 445, 177, 39, 81, 275, 88
47, 45, 399, 163, 37, 83, 305, 89
47, 45, 357, 192, 38, 81, 266, 89
48, 47, 404, 202, 38, 82, 254, 89
41, 48, 401, 244, 37, 58, 222, 46
42, 43, 313, 244, 36, 67, 250, 46
33, 45, 318, 247, 38, 62, 210, 37
33, 42, 305, 247, 38, 64, 202, 35
32, 40, 237, 237, 39, 65, 251, 71
36, 36, 291, 190, 37, 66, 254, 78
43, 38, 312, 184, 37, 70, 232, 81
44, 35, 293, 214, 36, 71, 259, 86
45, 36, 284, 187, 39, 77, 287, 86
45, 35, 279, 192, 42, 75, 246, 61
41, 39, 238, 177, 45, 84, 255, 50
30, 35, 232, 181, 44, 75, 255, 44
30, 37, 292, 153, 43, 73, 227, 33
29, 36, 303, 168, 45, 74, 198, 51
28, 35, 287, 151, 42, 69, 167, 64
29, 32, 288, 157, 43, 55, 150, 69
28, 35, 311, 167, 45, 55, 175, 69
27, 37, 266, 168, 49, 64, 195, 71
27, 37, 256, 197, 42, 78, 202, 61
29, 36, 278, 199, 43, 84, 202, 46
29, 36, 258, 203, 39, 84, 214, 39
28, 32, 223, 195, 40, 98, 202, 39
28, 32, 271, 226, 36, 94, 215, 36
25, 32, 287, 192, 36, 77, 203, 41
25, 34, 263, 221, 39, 75, 248, 64
23, 35, 284, 226, 41, 84, 250, 68
25, 38, 316, 224, 39, 78, 250, 67
25, 38, 281, 190, 39, 77, 231, 67
27, 38, 276, 209, 41, 79, 284, 64
27, 41, 314, 184, 38, 74, 248, 47
29, 43, 323, 206, 38, 66, 246, 83
40, 40, 282, 202, 38, 53, 268, 89
42, 44, 292, 208, 37, 56, 353, 94
40, 43, 300, 209, 37, 48, 314, 95
41, 39, 254, 204, 37, 50, 316, 95
44, 39, 267, 214, 38, 65, 381, 87
34, 46, 313, 226, 39, 65, 373, 87
34, 39, 299, 222, 42, 64, 291, 86
40, 38, 271, 201, 41, 70, 294, 87
41, 40, 276, 216, 39, 67, 292, 82
36, 39, 246, 208, 37, 58, 204, 56
37, 31, 198, 224, 38, 65, 197, 52
38, 34, 199, 218, 36, 64, 194, 71
33, 36, 246, 221, 33, 58, 186, 72
30, 34, 286, 201, 35, 57, 176, 73
30, 34, 305, 185, 36, 53, 214, 74
29, 35, 338, 167, 34, 50, 194, 70
29, 35, 327, 163, 38, 68, 236, 51
27, 34, 297, 161, 40, 82, 242, 47
28, 34, 268, 166, 37, 83, 247, 44
29, 33, 254, 155, 37, 81, 212, 42
28, 32, 193, 138, 36, 84, 223, 41
25, 29, 227, 154, 32, 78, 183, 31
23, 27, 248, 174, 31, 66, 176, 28
25, 33, 253, 195, 32, 69, 197, 38
23, 35, 285, 195, 30, 71, 202, 62
26, 36, 315, 196, 35, 76, 246, 83
25, 38, 299, 187, 36, 66, 241, 84
28, 42, 311, 169, 38, 66, 261, 85
27, 39, 328, 172, 39, 65, 260, 82
28, 38, 310, 206, 43, 81, 268, 67
29, 38, 311, 234, 40, 106, 314, 43
30, 37, 329, 237, 39, 108, 318, 41
29, 34, 303, 233, 37, 110, 315, 40
30, 34, 296, 238, 36, 111, 313, 39
29, 33, 300, 208, 33, 101, 316, 35
27, 34, 274, 202, 34, 67, 232, 31
29, 33, 259, 218, 39, 77, 240, 34
29, 33, 260, 237, 40, 78, 222, 31
28, 33, 241, 211, 42, 79, 213, 31
27, 35, 257, 220, 40, 81, 222, 33
27, 35, 258, 217, 41, 79, 205, 30
25, 38, 316, 241, 38, 68, 193, 28
25, 38, 315, 239, 39, 74, 200, 30
25, 37, 333, 240, 39, 76, 241, 29
26, 40, 327, 234, 40, 74, 212, 30
26, 37, 322, 215, 38, 72, 225, 32
25, 38, 273, 230, 41, 86, 240, 35
26, 43, 348, 242, 43, 87, 280, 35
28, 47, 358, 248, 42, 84, 250, 37
27, 44, 354, 245, 42, 84, 255, 36
28, 45, 352, 245, 41, 85, 253, 34
28, 43, 338, 200, 37, 72, 241, 30
26, 39, 273, 195, 37, 60, 222, 32
24, 37, 244, 185, 40, 69, 214, 29
24, 35, 200, 173, 37, 67, 220, 30
24, 36, 201, 183, 40, 63, 214, 29
25, 37, 209, 165, 41, 59, 212, 30
25, 37, 189, 151, 39, 74, 216, 29
25, 32, 152, 155, 37, 77, 256, 33
25, 32, 150, 172, 41, 86, 251, 33
24, 32, 191, 171, 43, 90, 252, 35
26, 31, 201, 188, 42, 88, 249, 35
28, 29, 207, 174, 40, 76, 239, 34
27, 31, 233, 212, 44, 73, 282, 37
27, 30, 256, 202, 40, 65, 273, 35
27, 33, 277, 198, 39, 64, 271, 35
24, 34, 289, 219, 41, 66, 278, 35
24, 36, 301, 227, 45, 76, 298, 36
25, 34, 321, 213, 45, 88, 229, 32
25, 36, 323, 216, 48, 97, 227, 32
25, 32, 286, 214, 46, 99, 242, 32
27, 33, 267, 191, 46, 104, 241, 36
27, 37, 312, 215, 50, 103, 210, 35
27, 40, 315, 197, 48, 92, 217, 35
27, 37, 307, 236, 45, 86, 238, 61
29, 39, 314, 249, 45, 81, 234, 63
27, 37, 357, 250, 46, 82, 257, 64
26, 32, 327, 228, 37, 74, 242, 65
30, 34, 293, 243, 34, 72, 232, 71
31, 34, 301, 209, 37, 67, 215, 63
28, 34, 288, 194, 35, 67, 221, 80
28, 35, 242, 203, 34, 72, 209, 80
30, 34, 204, 194, 37, 96, 204, 80
26, 31, 245, 213, 40, 90, 191, 75
23, 34, 237, 210, 39, 91, 193, 66
25, 39, 269, 206, 43, 99, 173, 41
26, 41, 283, 183, 39, 89, 140, 38
33, 44, 313, 202, 39, 68, 152, 74
33, 44, 303, 167, 38, 70, 189, 78
39, 42, 305, 156, 38, 67, 185, 92
39, 38, 284, 157, 34, 54, 212, 92
39, 36, 269, 216, 41, 68, 217, 95
33, 35, 262, 205, 43, 69, 246, 69
33, 35, 296, 195, 41, 69, 219, 62
28, 35, 307, 201, 42, 67, 240, 39
25, 34, 299, 199, 44, 69, 221, 38
25, 34, 298, 143, 39, 68, 237, 59
24, 33, 289, 136, 36, 73, 200, 61
22, 32, 250, 153, 37, 70, 213, 62
22, 30, 249, 144, 35, 75, 190, 63
22, 31, 247, 171, 37, 83, 212, 66
27, 35, 273, 171, 39, 73, 203, 63
26, 36, 327, 180, 38, 64, 218, 62
29, 39, 364, 190, 40, 64, 203, 62
30, 43, 369, 240, 48, 68, 225, 82
38, 42, 380, 227, 46, 57, 198, 80
36, 39, 359, 216, 41, 62, 192, 68
38, 38, 348, 206, 42, 60, 169, 67
38, 36, 310, 185, 39, 59, 172, 67
38, 35, 307, 128, 32, 56, 155, 39
31, 39, 293, 147, 35, 61, 178, 41
30, 42, 357, 157, 41, 60, 234, 46
28, 44, 336, 179, 45, 61, 239, 76
28, 45, 334, 182, 44, 64, 243, 78
27, 44, 314, 191, 43, 60, 263, 82
32, 42, 335, 192, 42, 60, 287, 82
35, 40, 255, 208, 39, 57, 247, 78
36, 37, 240, 199, 36, 64, 261, 48
36, 35, 209, 236, 36, 65, 285, 45
34, 34, 216, 228, 34, 66, 265, 37
30, 37, 255, 226, 36, 68, 236, 35
31, 37, 267, 219, 35, 75, 273, 45
31, 37, 257, 221, 33, 78, 278, 76
32, 39, 286, 223, 35, 77, 256, 83
34, 38, 295, 217, 36, 76, 249, 84
31, 37, 295, 211, 36, 77, 274, 84
29, 35, 311, 242, 43, 73, 238, 78
27, 34, 306, 246, 46, 68, 229, 51
25, 36, 320, 208, 46, 71, 235, 38
24, 38, 318, 234, 46, 71, 234, 34
27, 36, 279, 239, 46, 64, 222, 65
26, 37, 264, 197, 40, 61, 227, 72
26, 40, 299, 183, 38, 72, 229, 77
24, 39, 264, 185, 37, 69, 226, 77
23, 37, 252, 173, 38, 66, 240, 77
24, 41, 272, 186, 41, 72, 225, 56
27, 44, 299, 201, 44, 90, 231, 50
27, 41, 270, 199, 45, 74, 213, 40
31, 40, 277, 191, 45, 73, 215, 52
31, 40, 274, 172, 44, 74, 200, 66
31, 38, 268, 148, 43, 74, 247, 68
27, 32, 239, 152, 40, 70, 241, 67
28, 36, 243, 209, 37, 70, 241, 68
24, 34, 226, 224, 38, 74, 236, 59
24, 34, 235, 229, 40, 82, 307, 48
25, 34, 254, 228, 41, 92, 289, 46
27, 37, 261, 224, 43, 84, 286, 68
28, 40, 281, 170, 46, 84, 290, 76
29, 44, 289, 161, 44, 87, 300, 77
43, 48, 392, 159, 44, 93, 234, 75
43, 51, 383, 147, 40, 80, 232, 74
44, 54, 388, 122, 38, 81, 235, 55
46, 52, 388, 124, 35, 92, 268, 66
45, 51, 404, 120, 35, 94, 249, 76
32, 48, 308, 137, 34, 84, 275, 78
29, 45, 278, 167, 35, 82, 253, 79
30, 40, 274, 170, 35, 98, 274, 79
36, 38, 246, 181, 36, 87, 246, 62
37, 35, 205, 177, 36, 79, 264, 46
38, 35, 191, 166, 35, 80, 222, 42
43, 35, 256, 135, 35, 78, 225, 58
43, 39, 260, 159, 35, 75, 224, 90
35, 38, 266, 161, 36, 74, 240, 91
34, 38, 270, 187, 35, 73, 222, 93
32, 37, 330, 182, 34, 71, 227, 94
29, 43, 318, 206, 38, 81, 224, 83
26, 41, 331, 194, 39, 64, 190, 45
30, 45, 385, 182, 36, 69, 161, 41
30, 47, 387, 173, 40, 68, 162, 35
32, 50, 385, 184, 42, 76, 188, 32
30, 43, 378, 178, 38, 71, 251, 33
32, 42, 364, 180, 37, 69, 249, 30
30, 49, 381, 181, 40, 65, 251, 31
30, 55, 404, 165, 41, 70, 258, 34
31, 51, 360, 153, 38, 59, 267, 35
31, 52, 332, 130, 38, 60, 222, 34
28, 51, 351, 149, 37, 70, 216, 67
27, 43, 304, 159, 42, 73, 256, 73
27, 36, 270, 174, 39, 70, 258, 72
27, 37, 281, 170, 40, 72, 251, 73
27, 42, 338, 165, 42, 69, 228, 74
29, 44, 320, 135, 42, 61, 257, 54
29, 42, 349, 125, 37, 56, 224, 46
29, 42, 372, 123, 35, 64, 218, 46
29, 45, 394, 124, 33, 69, 210, 46
29, 45, 400, 128, 35, 73, 259, 70
30, 46, 409, 148, 35, 79, 258, 68
30, 44, 357, 159, 36, 81, 253, 68
31, 45, 358, 143, 37, 79, 254, 69
29, 43, 360, 152, 38, 74, 268, 69
31, 38, 328, 156, 35, 70, 247, 46
30, 36, 302, 138, 30, 59, 218, 39
29, 34, 292, 156, 30, 61, 218, 38
28, 34, 272, 174, 32, 60, 235, 34
31, 33, 237, 165, 34, 59, 207, 34
30, 38, 246, 189, 37, 58, 199, 30
28, 38, 309, 234, 40, 58, 203, 36
29, 39, 329, 209, 40, 67, 243, 62
30, 38, 322, 208, 42, 67, 228, 65
25, 37, 350, 211, 45, 77, 235, 66
27, 31, 330, 185, 42, 78, 227, 74
28, 35, 304, 200, 45, 82, 231, 73
28, 37, 292, 217, 43, 75, 180, 53
27, 34, 284, 206, 41, 73, 176, 52
29, 37, 239, 207, 35, 66, 169, 50
27, 44, 284, 216, 37, 76, 200, 46
29, 42, 279, 166, 34, 75, 189, 66
29, 41, 298, 143, 34, 73, 227, 74
29, 44, 318, 139, 34, 78, 236, 76
28, 42, 328, 130, 34, 73, 225, 78
30, 36, 285, 138, 33, 58, 185, 74
30, 40, 286, 135, 34, 60, 189, 57
33, 43, 264, 134, 35, 70, 197, 52
34, 44, 248, 132, 38, 76, 198, 49
35, 45, 261, 141, 38, 79, 196, 75
35, 47, 272, 114, 38, 111, 212, 77
34, 44, 294, 90, 38, 108, 227, 78
32, 47, 338, 127, 37, 111, 214, 77
31, 47, 350, 135, 36, 107, 208, 77
30, 45, 328, 126, 35, 111, 241, 48
29, 44, 320, 133, 36, 83, 239, 44
30, 43, 313, 150, 34, 89, 249, 39
30, 40, 293, 151, 39, 80, 259, 34
29, 41, 287, 162, 36, 83, 267, 34
31, 44, 322, 186, 39, 84, 262, 36
30, 40, 323, 199, 36, 83, 260, 35
30, 41, 319, 188, 36, 77, 246, 69
27, 36, 287, 168, 34, 79, 231, 71
27, 40, 308, 182, 37, 77, 217, 72
27, 39, 325, 162, 35, 70, 193, 74
28, 43, 387, 160, 41, 73, 196, 75
27, 43, 394, 165, 40, 72, 195, 46
27, 45, 412, 166, 38, 66, 176, 46
29, 40, 389, 166, 40, 59, 174, 81
28, 43, 366, 174, 42, 83, 225, 84
31, 40, 301, 161, 39, 89, 261, 89
30, 38, 276, 162, 40, 89, 259, 90
30, 38, 246, 156, 40, 89, 258, 88
28, 39, 275, 148, 36, 89, 263, 57
27, 37, 276, 162, 34, 70, 238, 47
32, 37, 269, 179, 31, 60, 225, 79
33, 38, 288, 176, 30, 62, 210, 81
34, 37, 287, 178, 29, 60, 216, 83
41, 33, 261, 158, 32, 71, 233, 83
42, 32, 281, 153, 32, 65, 238, 85
37, 35, 328, 137, 33, 75, 211, 52
36, 34, 310, 131, 32, 79, 232, 71
34, 36, 323, 141, 34, 78, 238, 71
25, 38, 325, 145, 32, 68, 212, 72
29, 39, 307, 125, 30, 69, 192, 82
28, 36, 283, 120, 33, 66, 185, 82
29, 35, 262, 136, 34, 67, 201, 61
29, 34, 258, 138, 35, 68, 201, 58
30, 34, 255, 131, 34, 75, 213, 56
28, 34, 254, 159, 34, 74, 207, 72
27, 34, 245, 196, 35, 75, 218, 73
44, 39, 277, 185, 35, 72, 199, 79
45, 39, 293, 173, 34, 79, 189, 81
48, 40, 293, 170, 34, 72, 177, 83
47, 39, 283, 151, 34, 71, 199, 56
47, 39, 321, 123, 31, 63, 221, 52
33, 34, 289, 125, 34, 69, 209, 46
32, 35, 275, 147, 33, 63, 210, 67
28, 32, 297, 171, 36, 66, 232, 69
26, 31, 295, 161, 37, 79, 233, 69
28, 36, 248, 161, 43, 105, 286, 70
48, 42, 337, 174, 43, 116, 336, 87
50, 40, 329, 159, 44, 118, 335, 71
51, 46, 343, 149, 43, 119, 325, 67
53, 48, 370, 158, 44, 115, 318, 67
53, 46, 364, 149, 42, 96, 264, 87
34, 44, 313, 160, 42, 76, 202, 67
34, 46, 320, 174, 42, 79, 196, 67
33, 44, 292, 164, 41, 82, 221, 73
39, 43, 306, 177, 40, 78, 218, 75
40, 44, 341, 174, 38, 76, 192, 55
42, 40, 346, 162, 38, 75, 183, 56
39, 43, 367, 165, 37, 77, 201, 77
39, 42, 371, 173, 38, 79, 177, 74
31, 39, 326, 168, 39, 80, 184, 73
29, 36, 309, 195, 39, 79, 197, 71
27, 40, 316, 197, 40, 79, 229, 69
28, 36, 310, 204, 41, 78, 221, 45
31, 38, 296, 206, 39, 87, 243, 45
28, 37, 301, 194, 37, 91, 259, 40
28, 39, 301, 176, 37, 87, 251, 36
29, 37, 300, 185, 33, 88, 229, 39
29, 37, 287, 180, 33, 91, 228, 72
32, 34, 284, 183, 35, 78, 263, 80
41, 34, 277, 189, 34, 76, 260, 83
45, 36, 310, 172, 33, 80, 256, 86
44, 37, 312, 205, 38, 76, 247, 86
45, 38, 302, 200, 39, 63, 280, 75
42, 39, 308, 193, 41, 69, 228, 65
37, 38, 313, 196, 43, 59, 213, 74
41, 38, 295, 197, 43, 64, 220, 74
41, 37, 247, 130, 38, 68, 258, 75
41, 35, 305, 121, 37, 68, 228, 61
40, 34, 333, 119, 35, 60, 213, 59
37, 38, 338, 103, 37, 80, 231, 65
32, 36, 304, 113, 38, 76, 290, 75
37, 36, 310, 119, 39, 72, 266, 88
36, 36, 272, 111, 37, 72, 261, 90
37, 36, 238, 143, 35, 76, 270, 92
39, 34, 237, 176, 38, 82, 255, 85
35, 32, 241, 171, 36, 81, 184, 87
29, 30, 269, 204, 37, 80, 176, 77
28, 31, 274, 208, 38, 80, 174, 73
37, 29, 271, 189, 40, 81, 220, 73
35, 31, 331, 246, 40, 55, 208, 64
37, 32, 321, 274, 41, 54, 210, 47
44, 34, 339, 254, 40, 63, 242, 98
45, 35, 353, 255, 43, 86, 247, 108
47, 37, 368, 276, 41, 84, 191, 107
47, 38, 313, 208, 39, 84, 207, 109
48, 39, 363, 172, 40, 100, 256, 129
44, 39, 347, 170, 37, 99, 227, 109
44, 35, 379, 169, 36, 82, 216, 101
34, 35, 372, 167, 36, 79, 228, 101
36, 33, 387, 166, 34, 84, 224, 100
32, 34, 408, 168, 34, 72, 166, 70
39, 38, 391, 161, 36, 66, 165, 44
39, 42, 347, 184, 39, 65, 197, 66
39, 43, 383, 150, 41, 69, 212, 67
41, 45, 417, 144, 41, 66, 225, 79
43, 44, 379, 137, 43, 80, 269, 80
36, 40, 387, 148, 44, 78, 270, 80
37, 38, 371, 110, 38, 86, 254, 64
46, 41, 355, 129, 42, 92, 240, 92
44, 39, 286, 138, 44, 101, 241, 83
54, 42, 307, 147, 42, 89, 183, 88
52, 42, 298, 190, 44, 93, 187, 89
51, 46, 314, 190, 45, 88, 183, 87
42, 43, 288, 180, 40, 81, 183, 53
42, 44, 286, 187, 38, 77, 162, 82
36, 42, 262, 183, 37, 73, 196, 88
39, 45, 270, 133, 32, 72, 198, 91
42, 42, 276, 140, 38, 71, 217, 93
44, 44, 306, 164, 44, 76, 236, 109
42, 42, 310, 157, 42, 68, 243, 92
33, 44, 311, 183, 42, 69, 222, 82
31, 41, 295, 202, 43, 81, 222, 76
33, 39, 271, 206, 41, 94, 202, 86
32, 35, 252, 195, 36, 91, 201, 90
37, 36, 265, 199, 39, 88, 193, 87
40, 46, 237, 172, 38, 93, 190, 90
48, 50, 268, 154, 44, 103, 296, 103
45, 51, 258, 141, 40, 91, 308, 100
43, 52, 255, 145, 40, 103, 288, 79
42, 53, 253, 162, 38, 107, 299, 81
39, 41, 280, 158, 40, 104, 309, 80
37, 39, 334, 155, 33, 88, 239, 102
44, 38, 344, 168, 35, 92, 229, 102
47, 36, 356, 184, 36, 77, 263, 103
45, 35, 382, 171, 36, 72, 266, 103
47, 38, 368, 183, 33, 87, 276, 126
47, 38, 349, 225, 38, 84, 275, 100
40, 38, 372, 221, 39, 77, 274, 95
41, 43, 361, 201, 43, 81, 274, 103
43, 44, 377, 212, 43, 96, 284, 118
44, 41, 377, 207, 43, 80, 267, 92
69, 42, 345, 167, 45, 103, 336, 105
86, 41, 330, 168, 43, 108, 346, 105
87, 37, 311, 178, 38, 103, 330, 114
88, 37, 266, 161, 46, 101, 324, 102
102, 37, 268, 161, 49, 105, 381, 121
85, 34, 285, 173, 44, 78, 295, 108
69, 38, 284, 193, 47, 73, 283, 122
68, 41, 325, 174, 46, 74, 280, 105
66, 42, 347, 171, 42, 72, 291, 103
47, 42, 358, 202, 37, 64, 220, 97
49, 44, 382, 184, 37, 81, 252, 110
46, 40, 405, 165, 38, 81, 267, 91
67, 36, 388, 171, 40, 95, 281, 93
79, 35, 404, 202, 41, 102, 257, 95
76, 39, 397, 169, 42, 105, 270, 74
74, 40, 364, 167, 45, 98, 245, 55
75, 42, 327, 166, 44, 102, 237, 56
61, 42, 319, 167, 43, 99, 241, 76
55, 41, 259, 142, 41, 85, 228, 91
56, 40, 259, 154, 41, 96, 246, 91
57, 41, 233, 156, 41, 95, 292, 95
56, 41, 240, 156, 36, 96, 288, 114
58, 42, 227, 161, 36, 99, 264, 108
50, 43, 335, 206, 39, 104, 344, 93
56, 45, 343, 216, 38, 94, 331, 95
54, 41, 364, 215, 37, 90, 296, 108
60, 39, 384, 238, 45, 127, 365, 97
54, 38, 386, 233, 45, 117, 367, 91
51, 36, 299, 183, 41, 110, 300, 87
47, 39, 348, 167, 43, 119, 289, 108
45, 45, 365, 201, 45, 119, 281, 92
36, 47, 342, 169, 39, 78, 186, 82
34, 48, 378, 166, 36, 89, 211, 79
46, 50, 394, 167, 36, 90, 204, 86
46, 47, 393, 160, 33, 79, 211, 81
52, 41, 364, 112, 33, 88, 262, 82
51, 49, 450, 136, 33, 85, 264, 83
54, 47, 431, 134, 34, 73, 241, 86
56, 47, 412, 124, 35, 75, 249, 107
52, 44, 390, 141, 37, 70, 243, 92
49, 45, 384, 142, 35, 59, 184, 92
57, 41, 298, 152, 40, 71, 172, 94
55, 43, 285, 153, 38, 70, 185, 98
54, 41, 302, 158, 39, 71, 183, 79
60, 42, 283, 178, 42, 82, 167, 77
70, 42, 317, 195, 42, 87, 218, 75
67, 37, 297, 170, 38, 75, 228, 80
71, 37, 299, 174, 40, 102, 248, 105
66, 36, 284, 208, 41, 98, 241, 99
62, 37, 302, 186, 39, 96, 262, 98
49, 37, 286, 171, 37, 90, 227, 99
52, 39, 315, 174, 36, 116, 229, 114
59, 43, 352, 170, 35, 95, 206, 97
58, 46, 400, 168, 34, 96, 205, 97
65, 47, 380, 172, 36, 95, 191, 97
66, 46, 371, 175, 37, 104, 221, 95
65, 46, 361, 178, 41, 91, 241, 94
54, 41, 320, 198, 39, 96, 250, 97
53, 41, 245, 172, 44, 100, 250, 100
50, 38, 225, 185, 42, 113, 294, 103
66, 44, 259, 182, 41, 109, 289, 115
64, 48, 270, 177, 35, 105, 275, 96
64, 51, 300, 180, 38, 98, 259, 81
61, 48, 347, 182, 34, 96, 289, 82
58, 54, 345, 165, 37, 123, 319, 98
38, 50, 361, 187, 38, 128, 313, 91
42, 45, 362, 195, 38, 122, 317, 90
41, 45, 348, 179, 35, 123, 318, 90
42, 45, 331, 166, 34, 127, 305, 81
40, 42, 360, 175, 33, 87, 229, 75
39, 44, 341, 163, 40, 75, 222, 67
31, 43, 333, 148, 42, 78, 189, 69
30, 42, 341, 147, 44, 73, 188, 68
30, 41, 335, 160, 45, 63, 221, 68
30, 41, 348, 155, 47, 70, 250, 48
31, 39, 329, 147, 41, 74, 254, 73
30, 43, 357, 162, 42, 75, 262, 73
33, 42, 341, 215, 44, 91, 311, 75
31, 45, 354, 220, 44, 89, 281, 75
29, 41, 317, 222, 40, 78, 241, 71
31, 41, 320, 233, 41, 95, 283, 68
32, 36, 311, 239, 40, 91, 282, 68
31, 41, 308, 204, 45, 94, 236, 69
31, 39, 284, 221, 46, 101, 251, 67
35, 40, 285, 212, 45, 112, 299, 75
45, 42, 356, 222, 44, 117, 254, 100
44, 40, 358, 210, 44, 127, 294, 102
46, 34, 360, 203, 35, 114, 312, 104
49, 36, 373, 183, 34, 112, 295, 105
48, 36, 389, 179, 34, 104, 261, 112
64, 38, 328, 180, 38, 90, 285, 90
67, 42, 295, 193, 40, 79, 267, 90
69, 44, 308, 186, 39, 78, 241, 89
68, 42, 278, 174, 36, 71, 246, 88
67, 41, 266, 172, 38, 76, 236, 93
53, 41, 315, 134, 37, 87, 224, 85
50, 39, 305, 116, 35, 95, 239, 83
59, 37, 296, 110, 38, 103, 251, 92
61, 39, 339, 136, 42, 108, 250, 116
61, 38, 326, 141, 40, 104, 259, 104
57, 34, 283, 154, 38, 92, 318, 98
58, 33, 285, 146, 39, 94, 298, 97
45, 33, 280, 165, 38, 86, 291, 87
44, 37, 262, 137, 36, 82, 288, 93
43, 38, 257, 138, 35, 90, 298, 91
50, 40, 232, 125, 34, 87, 269, 97
51, 39, 220, 127, 32, 69, 260, 96
53, 39, 222, 112, 30, 73, 260, 96
50, 39, 271, 118, 38, 91, 283, 74
52, 45, 288, 120, 40, 90, 262, 80
38, 45, 286, 115, 41, 82, 208, 75
36, 45, 317, 144, 41, 85, 227, 77
38, 44, 308, 137, 43, 87, 246, 76
38, 40, 290, 143, 36, 68, 244, 92
35, 32, 273, 140, 36, 64, 259, 86
37, 37, 370, 158, 40, 79, 268, 98
36, 37, 369, 146, 41, 77, 253, 96
31, 40, 375, 171, 43, 83, 266, 97
38, 41, 336, 162, 42, 88, 283, 92
38, 42, 369, 176, 43, 88, 287, 93
44, 43, 319, 169, 42, 79, 273, 82
45, 42, 295, 161, 44, 97, 294, 82
46, 38, 293, 132, 40, 88, 268, 84
40, 39, 311, 151, 44, 84, 236, 63
40, 39, 351, 184, 46, 88, 223, 87
40, 35, 312, 176, 44, 90, 240, 86
40, 35, 324, 176, 44, 85, 267, 87
41, 36, 335, 195, 46, 86, 261, 87
48, 39, 339, 206, 47, 90, 259, 97
47, 38, 291, 163, 45, 79, 258, 91
41, 40, 317, 173, 45, 74, 248, 94
52, 40, 326, 173, 42, 73, 239, 94
51, 42, 320, 152, 43, 88, 290, 91
45, 36, 294, 167, 39, 81, 283, 94
45, 35, 259, 180, 39, 82, 273, 80
48, 39, 377, 181, 40, 89, 278, 78
38, 44, 395, 186, 40, 77, 253, 83
48, 46, 408, 186, 40, 72, 223, 98
46, 48, 425, 159, 37, 80, 232, 89
47, 48, 426, 160, 36, 82, 242, 86
43, 42, 360, 163, 34, 75, 236, 82
43, 39, 333, 159, 38, 93, 274, 80
34, 39, 339, 186, 37, 84, 269, 73
35, 38, 330, 168, 37, 79, 276, 82
36, 38, 335, 155, 37, 79, 275, 84
46, 36, 269, 139, 37, 92, 334, 85
46, 36, 265, 165, 36, 82, 300, 80
45, 37, 257, 166, 39, 78, 286, 68
45, 37, 258, 170, 40, 77, 270, 50
46, 39, 248, 164, 41, 87, 278, 86
44, 38, 258, 167, 42, 73, 208, 89
42, 38, 277, 158, 41, 68, 175, 89
43, 34, 282, 158, 40, 83, 180, 89
43, 36, 284, 165, 39, 83, 266, 87
42, 32, 287, 174, 36, 78, 255, 78
34, 35, 283, 173, 38, 91, 258, 75
38, 34, 277, 158, 35, 88, 268, 79
36, 36, 312, 131, 34, 81, 290, 78
38, 33, 309, 132, 34, 84, 246, 78
38, 35, 310, 140, 38, 106, 275, 67
36, 35, 308, 146, 37, 94, 295, 67
30, 36, 308, 144, 38, 98, 301, 62
30, 37, 271, 136, 37, 98, 278, 69
25, 40, 286, 124, 42, 102, 274, 71
26, 38, 282, 105, 39, 74, 254, 77
26, 38, 279, 95, 40, 76, 218, 83
24, 37, 272, 123, 42, 72, 223, 85
24, 36, 321, 138, 42, 82, 214, 80
26, 35, 300, 142, 37, 75, 235, 78
27, 40, 315, 152, 40, 77, 246, 62
40, 38, 323, 150, 40, 92, 261, 75
44, 41, 301, 119, 36, 94, 252, 76
44, 41, 236, 105, 33, 81, 270, 75
45, 44, 275, 113, 35, 93, 313, 75
44, 48, 358, 131, 33, 100, 299, 79
35, 50, 362, 150, 31, 86, 299, 97
33, 47, 373, 162, 33, 83, 312, 96
34, 46, 374, 162, 35, 85, 314, 98
43, 45, 382, 177, 39, 76, 287, 99
43, 37, 292, 191, 38, 70, 291, 91
42, 37, 299, 194, 40, 71, 285, 70
40, 36, 310, 188, 40, 72, 262, 71
42, 37, 325, 208, 45, 76, 254, 73
32, 34, 293, 187, 39, 77, 215, 74
36, 34, 298, 162, 39, 66, 198, 76
38, 34, 309, 139, 39, 68, 196, 59
39, 33, 309, 150, 38, 67, 200, 80
35, 32, 290, 136, 33, 59, 206, 79
37, 31, 276, 140, 33, 59, 239, 77
32, 36, 312, 129, 30, 68, 250, 76
30, 36, 277, 139, 30, 64, 247, 74
29, 38, 297, 127, 31, 64, 247, 47
31, 43, 293, 127, 31, 68, 270, 74
32, 46, 334, 167, 36, 66, 231, 78
31, 46, 400, 187, 37, 73, 235, 78
30, 46, 417, 188, 41, 79, 234, 78
34, 46, 395, 186, 41, 84, 255, 87
43, 41, 384, 180, 39, 84, 230, 88
40, 38, 377, 154, 34, 77, 217, 83
41, 33, 259, 130, 34, 71, 207, 83
41, 34, 251, 119, 29, 64, 209, 86
37, 37, 259, 128, 31, 60, 185, 77
24, 36, 281, 149, 34, 60, 172, 46
22, 36, 294, 152, 35, 61, 213, 75
26, 43, 312, 162, 41, 63, 264, 78
33, 41, 314, 173, 41, 62, 258, 86
37, 38, 301, 175, 40, 66, 263, 88
39, 38, 299, 190, 41, 65, 284, 89
41, 41, 288, 186, 48, 87, 259, 88
40, 38, 300, 183, 46, 81, 212, 92
36, 39, 293, 174, 47, 88, 230, 86
34, 38, 303, 180, 49, 84, 246, 83
33, 39, 312, 166, 49, 87, 247, 82
31, 38, 273, 176, 45, 74, 252, 58
39, 35, 262, 271, 48, 76, 264, 77
40, 37, 295, 303, 48, 68, 255, 84
43, 37, 331, 311, 48, 70, 232, 86
43, 38, 311, 310, 45, 67, 199, 87
44, 39, 339, 309, 46, 77, 255, 86
37, 41, 322, 226, 41, 76, 246, 62
35, 39, 303, 208, 40, 79, 243, 72
32, 40, 265, 220, 44, 78, 251, 73
38, 38, 263, 202, 48, 105, 319, 83
36, 43, 276, 193, 45, 92, 271, 83
35, 40, 354, 221, 50, 92, 259, 82
35, 41, 404, 205, 48, 89, 257, 59
33, 41, 431, 167, 42, 94, 291, 78
28, 46, 425, 169, 41, 80, 227, 66
29, 42, 394, 166, 41, 84, 228, 68
32, 40, 326, 132, 37, 81, 226, 82
32, 38, 247, 114, 37, 84, 257, 84
33, 38, 205, 113, 38, 81, 212, 63
31, 32, 260, 153, 36, 69, 202, 80
32, 31, 323, 153, 35, 61, 228, 85
42, 32, 322, 157, 36, 69, 259, 72
44, 38, 313, 161, 34, 69, 235, 80
45, 42, 292, 162, 35, 68, 230, 82
46, 43, 263, 145, 35, 64, 225, 65
46, 40, 266, 148, 33, 66, 189, 65
37, 40, 281, 137, 32, 66, 145, 78
46, 35, 316, 163, 37, 69, 131, 86
46, 29, 315, 177, 38, 78, 161, 84
46, 30, 334, 174, 38, 83, 188, 83
47, 32, 303, 170, 39, 81, 183, 77
46, 34, 313, 175, 38, 80, 191, 69
40, 34, 323, 151, 36, 90, 226, 72
40, 36, 323, 141, 35, 87, 230, 80
44, 33, 314, 151, 35, 80, 208, 86
42, 34, 286, 150, 38, 84, 215, 85
42, 33, 296, 150, 38, 85, 259, 82
39, 33, 248, 147, 38, 85, 239, 84
37, 33, 256, 136, 36, 76, 213, 79
33, 38, 256, 113, 39, 75, 208, 74
31, 37, 256, 118, 35, 72, 212, 76
30, 38, 225, 131, 36, 74, 194, 76
30, 40, 260, 139, 40, 65, 200, 80
38, 42, 289, 157, 42, 81, 207, 77
37, 39, 272, 153, 40, 86, 246, 77
39, 41, 316, 158, 41, 91, 248, 77
39, 43, 309, 143, 39, 82, 213, 77
37, 41, 309, 156, 34, 73, 197, 43
33, 43, 354, 155, 37, 59, 243, 69
33, 42, 358, 161, 37, 57, 226, 75
33, 40, 326, 158, 36, 49, 220, 78
35, 38, 338, 158, 38, 59, 218, 78
35, 37, 320, 144, 37, 62, 232, 79
33, 34, 244, 147, 35, 58, 177, 82
40, 34, 247, 151, 38, 69, 219, 96
38, 37, 253, 137, 37, 79, 218, 98
39, 40, 277, 140, 35, 73, 213, 101
40, 42, 308, 153, 36, 72, 231, 102
39, 43, 310, 141, 37, 77, 233, 87
35, 42, 312, 149, 34, 70, 199, 64
43, 44, 354, 171, 39, 57, 212, 78
41, 43, 403, 171, 43, 57, 220, 74
42, 43, 380, 155, 44, 64, 221, 75
42, 40, 378, 146, 40, 63, 220, 70
42, 44, 373, 136, 39, 56, 213, 68
33, 40, 349, 132, 37, 64, 222, 42
33, 41, 294, 132, 36, 70, 226, 38
31, 38, 304, 133, 36, 71, 203, 68
40, 39, 295, 137, 36, 70, 205, 68
43, 42, 297, 138, 38, 73, 215, 72
44, 42, 341, 143, 38, 70, 206, 72
43, 39, 344, 151, 40, 76, 228, 73
44, 41, 341, 156, 38, 68, 220, 45
34, 42, 348, 159, 42, 75, 265, 82
41, 38, 353, 157, 41, 73, 251, 82
40, 39, 282, 147, 38, 75, 242, 83
43, 39, 312, 140, 34, 62, 222, 92
42, 36, 304, 141, 33, 67, 232, 93
43, 37, 323, 156, 33, 65, 209, 63
38, 35, 315, 150, 34, 67, 216, 92
39, 33, 308, 135, 33, 62, 205, 94
36, 35, 231, 136, 35, 62, 197, 85
34, 36, 249, 132, 36, 72, 216, 85
37, 34, 289, 118, 36, 66, 182, 90
43, 38, 303, 119, 35, 66, 167, 82
42, 36, 310, 118, 35, 64, 167, 81
46, 32, 309, 108, 33, 68, 181, 85
47, 32, 308, 125, 34, 61, 154, 87
45, 37, 273, 135, 30, 64, 157, 81
33, 32, 244, 127, 30, 59, 153, 57
45, 39, 249, 137, 35, 76, 183, 62
45, 40, 283, 138, 34, 83, 231, 58
45, 41, 284, 127, 35, 78, 223, 55
45, 37, 282, 132, 37, 78, 231, 54
45, 42, 334, 133, 36, 79, 230, 49
38, 38, 340, 129, 33, 69, 273, 54
44, 37, 304, 129, 36, 62, 256, 59
46, 36, 302, 124, 34, 60, 261, 59
45, 37, 284, 101, 31, 56, 252, 61
46, 39, 318, 127, 40, 62, 269, 62
43, 44, 381, 131, 40, 73, 245, 75
45, 45, 393, 132, 39, 72, 229, 81
43, 44, 383, 131, 39, 77, 236, 82
44, 46, 418, 143, 42, 86, 257, 83
43, 41, 365, 122, 36, 82, 238, 82
42, 37, 300, 115, 39, 73, 210, 62
28, 36, 304, 111, 38, 80, 198, 72
40, 36, 323, 118, 40, 78, 198, 70
42, 32, 262, 132, 38, 73, 190, 76
43, 34, 267, 144, 36, 71, 190, 79
44, 32, 282, 143, 31, 66, 179, 80
44, 35, 274, 157, 31, 53, 198, 73
31, 36, 281, 171, 31, 54, 187, 82
43, 37, 312, 160, 35, 55, 224, 75
43, 36, 323, 153, 36, 58, 226, 89
42, 39, 322, 159, 38, 66, 242, 87
42, 36, 326, 152, 40, 73, 229, 100
43, 34, 309, 133, 40, 67, 225, 95
30, 36, 321, 121, 39, 89, 254, 95
40, 35, 308, 114, 38, 92, 282, 81
42, 32, 306, 107, 36, 88, 272, 87
42, 36, 306, 150, 35, 84, 271, 57
42, 38, 323, 146, 34, 90, 295, 73
41, 36, 305, 155, 34, 71, 251, 75
30, 38, 331, 178, 34, 80, 228, 77
32, 41, 342, 203, 35, 83, 236, 74
39, 39, 374, 201, 37, 83, 251, 73
39, 37, 376, 206, 36, 87, 236, 85
39, 36, 362, 200, 33, 85, 220, 84
42, 37, 356, 185, 38, 81, 236, 82
38, 34, 327, 154, 36, 78, 219, 80
34, 40, 413, 119, 41, 81, 227, 83
32, 41, 401, 133, 42, 77, 240, 47
36, 46, 428, 142, 47, 87, 248, 62
34, 43, 410, 137, 45, 80, 227, 82
41, 45, 422, 163, 45, 80, 233, 84
39, 40, 307, 155, 38, 78, 236, 85
40, 39, 315, 140, 37, 91, 247, 89
36, 33, 271, 125, 30, 76, 243, 77
37, 36, 259, 120, 26, 79, 249, 53
33, 36, 276, 100, 28, 77, 246, 45
34, 37, 261, 139, 29, 79, 222, 73
34, 38, 266, 169, 32, 68, 214, 71
38, 37, 329, 179, 34, 72, 217, 81
34, 35, 345, 191, 37, 70, 232, 82
31, 32, 321, 185, 33, 75, 237, 84
32, 33, 317, 161, 35, 71, 237, 64
32, 32, 308, 145, 32, 63, 225, 60
39, 36, 287, 157, 35, 64, 226, 73
42, 37, 308, 159, 35, 63, 221, 78
42, 38, 297, 161, 36, 61, 217, 77
40, 34, 319, 156, 36, 59, 210, 76
42, 35, 307, 138, 36, 60, 204, 87
35, 37, 320, 119, 33, 55, 199, 75
31, 40, 292, 130, 33, 60, 182, 85
42, 42, 321, 129, 34, 73, 310, 87
43, 43, 307, 130, 32, 82, 326, 86
40, 42, 300, 129, 34, 90, 314, 75
39, 39, 264, 131, 37, 94, 319, 66
39, 34, 259, 106, 35, 90, 321, 44
31, 31, 248, 114, 33, 79, 220, 85
38, 32, 237, 121, 33, 71, 191, 85
39, 32, 239, 129, 31, 58, 203, 88
40, 32, 213, 136, 28, 51, 210, 90
44, 32, 202, 127, 33, 59, 236, 98
43, 33, 184, 125, 32, 68, 234, 66
38, 33, 201, 122, 32, 68, 239, 63
36, 35, 222, 131, 32, 68, 256, 58
41, 37, 297, 141, 33, 72, 257, 82
37, 41, 335, 151, 31, 70, 235, 77
37, 39, 326, 143, 36, 60, 214, 79
37, 37, 332, 160, 36, 63, 246, 78
44, 39, 318, 153, 38, 75, 246, 89
38, 38, 283, 143, 38, 77, 234, 69
39, 36, 313, 143, 37, 73, 233, 73
45, 37, 319, 144, 36, 79, 258, 83
44, 39, 305, 119, 40, 89, 239, 86
38, 37, 315, 135, 40, 80, 209, 76
43, 38, 335, 124, 38, 77, 220, 82
42, 38, 332, 131, 39, 83, 261, 75
33, 37, 341, 148, 37, 77, 252, 66
34, 43, 359, 150, 33, 61, 241, 76
39, 42, 407, 151, 35, 81, 294, 84
34, 40, 365, 145, 38, 84, 283, 78
34, 39, 308, 137, 34, 78, 235, 77
35, 41, 301, 121, 34, 82, 224, 70
36, 36, 310, 134, 38, 94, 248, 59
38, 36, 260, 121, 34, 85, 199, 88
42, 37, 264, 133, 29, 78, 187, 86
40, 38, 267, 145, 34, 79, 191, 86
