169, 208, 417, 266, 102, 39, 46, 50
197, 240, 496, 309, 87, 41, 48, 58
200, 257, 426, 312, 85, 42, 50, 67
204, 234, 387, 280, 70, 37, 49, 69
220, 307, 393, 256, 74, 47, 56, 81
217, 317, 386, 255, 73, 54, 96, 94
257, 453, 313, 207, 88, 98, 176, 208
303, 466, 284, 256, 143, 169, 242, 269
441, 588, 307, 314, 162, 184, 271, 354
599, 669, 308, 369, 197, 213, 372, 370
770, 697, 340, 479, 292, 312, 561, 524
885, 629, 339, 563, 359, 337, 695, 607
1095, 681, 312, 548, 365, 326, 884, 790
1205, 603, 287, 525, 380, 349, 894, 788
1179, 555, 295, 595, 391, 377, 873, 821
1105, 563, 265, 523, 342, 335, 797, 751
1093, 564, 244, 467, 328, 321, 707, 686
995, 589, 262, 541, 335, 323, 516, 562
921, 611, 273, 556, 324, 299, 526, 571
943, 593, 253, 460, 303, 252, 577, 588
941, 588, 250, 468, 350, 217, 624, 582
977, 650, 237, 450, 317, 212, 704, 650
957, 608, 229, 387, 291, 229, 756, 639
914, 598, 218, 373, 307, 230, 809, 633
1000, 601, 219, 394, 317, 306, 851, 591
1067, 586, 221, 390, 279, 312, 843, 681
1105, 532, 218, 395, 275, 315, 910, 734
1114, 526, 214, 362, 275, 285, 887, 762
1121, 502, 204, 444, 297, 300, 869, 766
1069, 465, 196, 436, 285, 218, 823, 794
1059, 449, 191, 464, 275, 209, 905, 758
950, 455, 243, 436, 273, 195, 786, 635
939, 471, 249, 477, 307, 228, 756, 527
934, 551, 252, 480, 294, 211, 766, 509
940, 552, 263, 538, 289, 211, 764, 463
888, 542, 278, 597, 318, 218, 685, 432
858, 557, 250, 611, 307, 209, 745, 452
799, 522, 245, 631, 278, 183, 778, 460
817, 509, 244, 626, 260, 166, 796, 445
799, 527, 244, 589, 285, 170, 835, 447
837, 523, 220, 538, 240, 145, 858, 487
908, 489, 195, 570, 251, 140, 787, 478
1069, 559, 203, 603, 285, 124, 856, 583
1046, 513, 238, 659, 294, 178, 811, 618
1074, 529, 243, 713, 332, 185, 746, 679
1123, 573, 242, 759, 381, 200, 672, 637
1126, 592, 242, 767, 377, 199, 731, 643
957, 519, 222, 734, 373, 215, 597, 528
945, 497, 174, 646, 349, 171, 593, 497
866, 441, 162, 580, 310, 158, 582, 404
748, 434, 162, 472, 246, 144, 541, 379
638, 428, 161, 407, 242, 146, 459, 366
658, 511, 162, 353, 191, 120, 426, 358
611, 506, 185, 389, 215, 140, 390, 329
659, 571, 228, 477, 199, 143, 408, 396
623, 531, 223, 496, 181, 132, 401, 394
646, 530, 221, 525, 181, 126, 357, 365
624, 468, 233, 564, 195, 132, 343, 369
696, 518, 222, 550, 230, 125, 385, 403
612, 456, 179, 550, 271, 133, 475, 363
661, 504, 220, 645, 323, 137, 528, 414
707, 466, 242, 680, 344, 176, 596, 453
783, 474, 230, 661, 347, 172, 587, 498
730, 433, 222, 655, 325, 161, 567, 468
806, 456, 212, 682, 301, 144, 464, 432
763, 442, 184, 597, 276, 154, 423, 402
781, 454, 175, 638, 268, 114, 357, 378
744, 436, 184, 648, 268, 146, 398, 319
775, 454, 204, 717, 299, 143, 390, 355
746, 431, 190, 648, 285, 148, 570, 427
767, 474, 192, 673, 274, 144, 591, 424
692, 511, 181, 584, 300, 145, 590, 449
614, 490, 194, 655, 321, 133, 572, 444
643, 470, 199, 588, 307, 162, 635, 485
641, 480, 231, 691, 322, 172, 530, 461
619, 418, 233, 749, 328, 168, 562, 479
622, 356, 221, 779, 295, 169, 557, 442
647, 408, 218, 697, 281, 165, 558, 451
634, 429, 236, 757, 285, 156, 562, 431
675, 523, 284, 720, 325, 162, 543, 431
672, 577, 288, 699, 332, 170, 502, 451
703, 633, 307, 731, 337, 175, 506, 472
712, 641, 315, 799, 345, 165, 509, 456
695, 639, 307, 762, 330, 156, 404, 414
649, 553, 245, 689, 298, 149, 382, 393
744, 516, 257, 662, 278, 135, 347, 359
731, 521, 233, 652, 273, 126, 395, 369
756, 484, 207, 581, 240, 125, 449, 438
718, 492, 187, 561, 226, 125, 464, 442
731, 542, 188, 579, 198, 122, 493, 492
652, 579, 148, 556, 204, 134, 532, 506
616, 538, 159, 497, 196, 130, 483, 492
615, 554, 174, 562, 228, 134, 433, 455
605, 556, 195, 564, 235, 139, 447, 449
615, 522, 183, 563, 222, 125, 424, 405
659, 463, 184, 570, 234, 116, 444, 382
736, 480, 182, 573, 240, 117, 542, 441
767, 502, 181, 522, 276, 117, 541, 430
785, 549, 166, 554, 295, 111, 580, 528
720, 545, 208, 582, 297, 119, 567, 503
707, 637, 219, 577, 296, 136, 539, 537
705, 675, 227, 643, 323, 138, 500, 592
659, 690, 253, 655, 289, 144, 499, 593
669, 636, 271, 670, 271, 166, 591, 571
658, 636, 294, 693, 316, 179, 662, 598
605, 541, 286, 659, 297, 169, 653, 566
641, 485, 284, 607, 278, 168, 648, 522
596, 427, 268, 650, 283, 160, 646, 534
574, 433, 267, 688, 294, 137, 522, 474
623, 441, 213, 627, 243, 143, 485, 513
622, 428, 234, 677, 258, 144, 461, 512
470, 390, 228, 649, 237, 178, 483, 505
467, 384, 213, 587, 206, 182, 467, 490
554, 400, 183, 479, 194, 181, 428, 480
542, 391, 192, 538, 214, 155, 389, 444
587, 405, 165, 528, 225, 152, 416, 429
631, 419, 165, 548, 228, 111, 293, 366
747, 475, 169, 591, 246, 113, 310, 381
732, 481, 212, 641, 285, 123, 324, 400
755, 475, 216, 598, 276, 140, 320, 373
737, 505, 215, 598, 261, 137, 303, 368
738, 536, 225, 579, 263, 145, 354, 341
657, 475, 226, 556, 252, 145, 383, 326
655, 461, 193, 506, 199, 136, 395, 309
621, 487, 228, 614, 237, 135, 473, 297
637, 451, 248, 593, 254, 155, 482, 348
666, 419, 258, 679, 308, 175, 465, 416
700, 468, 260, 679, 331, 175, 474, 460
794, 468, 266, 685, 342, 175, 486, 477
834, 437, 239, 619, 329, 168, 420, 499
808, 429, 245, 666, 333, 153, 413, 462
796, 437, 224, 576, 274, 133, 464, 416
744, 400, 223, 564, 263, 150, 482, 364
582, 435, 217, 552, 249, 151, 518, 345
513, 485, 202, 491, 221, 148, 509, 282
520, 505, 193, 414, 184, 150, 541, 303
526, 499, 196, 394, 189, 185, 506, 310
496, 481, 180, 370, 155, 170, 514, 294
574, 429, 166, 384, 144, 171, 454, 268
571, 355, 157, 391, 141, 177, 477, 292
583, 304, 128, 462, 167, 170, 463, 298
565, 265, 137, 519, 198, 121, 445, 282
595, 272, 142, 513, 201, 117, 442, 284
500, 253, 161, 522, 196, 110, 442, 287
486, 264, 162, 520, 202, 98, 410, 286
457, 305, 174, 554, 219, 99, 383, 241
392, 311, 178, 565, 206, 108, 430, 222
354, 310, 180, 561, 203, 103, 381, 251
390, 385, 164, 517, 193, 113, 369, 256
404, 388, 160, 604, 222, 113, 367, 242
389, 354, 146, 547, 184, 115, 367, 255
420, 412, 136, 608, 219, 106, 342, 256
430, 405, 145, 603, 227, 106, 320, 255
427, 378, 146, 605, 232, 105, 361, 292
391, 379, 144, 515, 199, 106, 340, 279
423, 383, 140, 473, 192, 103, 360, 279
378, 355, 144, 332, 144, 106, 331, 284
383, 368, 138, 498, 127, 102, 322, 253
359, 331, 143, 516, 131, 98, 299, 195
357, 307, 163, 534, 138, 110, 321, 219
344, 310, 162, 574, 161, 112, 284, 228
320, 264, 153, 577, 167, 101, 320, 219
369, 272, 147, 459, 167, 105, 355, 230
435, 345, 153, 466, 194, 101, 352, 238
450, 341, 132, 500, 191, 83, 390, 214
496, 401, 140, 494, 211, 97, 423, 241
598, 403, 129, 463, 200, 103, 415, 263
641, 435, 154, 518, 230, 109, 400, 288
617, 384, 157, 518, 227, 112, 406, 286
611, 410, 189, 480, 234, 120, 387, 295
577, 346, 188, 466, 211, 115, 397, 274
534, 365, 202, 472, 231, 114, 454, 345
468, 319, 190, 425, 224, 108, 450, 380
488, 416, 225, 428, 213, 118, 452, 403
513, 433, 212, 482, 236, 119, 450, 407
516, 465, 223, 462, 241, 123, 473, 431
517, 459, 272, 558, 251, 121, 454, 407
544, 539, 281, 633, 280, 135, 483, 417
628, 554, 263, 646, 294, 143, 483, 400
617, 579, 269, 657, 283, 150, 504, 422
632, 617, 269, 717, 290, 152, 464, 411
632, 637, 244, 724, 303, 157, 448, 385
666, 580, 261, 689, 290, 175, 511, 327
734, 561, 269, 774, 298, 167, 579, 426
762, 537, 280, 771, 315, 181, 571, 451
812, 511, 286, 751, 306, 205, 599, 534
875, 496, 292, 694, 298, 224, 698, 703
849, 488, 283, 660, 278, 229, 673, 750
769, 414, 293, 589, 260, 235, 623, 750
785, 426, 285, 546, 237, 220, 722, 766
728, 439, 276, 502, 271, 206, 772, 721
646, 416, 238, 477, 265, 189, 683, 552
691, 438, 218, 498, 272, 158, 657, 487
637, 476, 178, 417, 277, 146, 659, 463
612, 454, 162, 452, 279, 138, 553, 408
591, 391, 176, 517, 293, 137, 452, 368
576, 390, 186, 548, 271, 122, 420, 370
481, 366, 191, 533, 255, 122, 395, 368
483, 327, 240, 585, 241, 117, 425, 341
451, 308, 236, 604, 237, 120, 401, 297
477, 313, 218, 550, 165, 94, 368, 308
459, 315, 225, 586, 185, 104, 363, 298
493, 325, 228, 596, 185, 97, 388, 292
487, 346, 177, 535, 175, 100, 355, 260
476, 337, 198, 496, 165, 100, 391, 298
525, 359, 212, 525, 170, 108, 420, 312
592, 397, 217, 450, 138, 96, 423, 318
544, 408, 210, 466, 146, 102, 529, 366
585, 440, 223, 588, 165, 110, 546, 385
588, 477, 207, 571, 162, 114, 540, 383
565, 453, 211, 565, 162, 122, 675, 444
513, 430, 215, 596, 179, 123, 698, 464
568, 454, 224, 596, 178, 137, 621, 441
611, 437, 241, 500, 175, 133, 597, 456
664, 414, 248, 522, 190, 132, 644, 474
635, 428, 223, 496, 196, 120, 487, 421
629, 416, 207, 485, 184, 133, 480, 390
647, 430, 199, 481, 190, 128, 447, 388
629, 420, 156, 471, 178, 126, 470, 345
626, 435, 179, 531, 199, 139, 381, 327
697, 448, 205, 553, 192, 141, 399, 341
753, 465, 214, 561, 192, 135, 432, 374
774, 437, 214, 557, 202, 140, 462, 401
736, 440, 215, 552, 232, 141, 432, 394
773, 416, 178, 485, 235, 134, 409, 384
759, 459, 204, 470, 247, 135, 509, 386
752, 483, 219, 473, 260, 143, 513, 421
700, 491, 230, 471, 261, 129, 535, 398
716, 518, 231, 504, 242, 133, 643, 437
642, 598, 258, 576, 233, 128, 666, 437
604, 590, 278, 677, 273, 140, 629, 458
664, 593, 266, 698, 278, 137, 634, 469
699, 579, 272, 721, 293, 140, 626, 477
715, 540, 289, 759, 312, 153, 631, 499
723, 451, 269, 715, 307, 160, 624, 489
745, 397, 214, 678, 270, 147, 582, 452
688, 349, 215, 645, 256, 149, 578, 394
630, 342, 203, 603, 217, 145, 549, 381
610, 441, 174, 575, 185, 129, 425, 298
625, 432, 172, 543, 161, 121, 564, 347
589, 442, 188, 461, 174, 124, 560, 336
551, 441, 174, 465, 171, 120, 542, 325
557, 417, 172, 501, 176, 116, 579, 312
529, 282, 170, 448, 187, 111, 566, 338
484, 284, 177, 502, 206, 109, 416, 310
534, 282, 150, 485, 180, 111, 441, 346
605, 375, 168, 497, 181, 102, 462, 395
584, 397, 171, 467, 186, 105, 398, 390
576, 424, 178, 469, 170, 102, 400, 368
573, 445, 213, 449, 161, 111, 423, 363
580, 474, 233, 455, 157, 109, 457, 375
509, 432, 224, 424, 150, 110, 394, 310
612, 451, 217, 445, 146, 113, 436, 336
608, 445, 225, 451, 164, 135, 432, 337
656, 438, 181, 448, 167, 123, 433, 351
662, 411, 167, 466, 182, 117, 383, 367
684, 407, 180, 523, 204, 113, 390, 368
675, 387, 200, 565, 210, 107, 361, 379
692, 356, 198, 579, 212, 94, 382, 375
650, 360, 218, 565, 206, 102, 332, 338
599, 366, 225, 598, 204, 105, 304, 279
546, 360, 236, 618, 207, 111, 313, 316
460, 383, 226, 540, 201, 120, 340, 278
469, 409, 223, 520, 186, 124, 332, 328
456, 394, 207, 523, 184, 128, 399, 357
431, 431, 213, 490, 197, 135, 408, 335
465, 469, 209, 446, 199, 134, 407, 303
467, 465, 248, 564, 218, 127, 406, 296
585, 482, 251, 563, 225, 113, 414, 295
708, 506, 263, 609, 267, 118, 380, 287
725, 447, 291, 624, 268, 117, 389, 304
700, 387, 302, 612, 283, 141, 367, 299
721, 421, 294, 526, 272, 152, 366, 337
647, 423, 299, 523, 273, 164, 338, 331
570, 447, 298, 492, 241, 153, 343, 344
626, 497, 265, 429, 222, 153, 392, 378
687, 502, 245, 414, 184, 131, 407, 388
696, 459, 230, 419, 178, 135, 391, 398
652, 415, 208, 437, 172, 124, 421, 368
587, 351, 189, 385, 157, 120, 403, 342
484, 352, 179, 394, 148, 109, 337, 290
402, 343, 197, 400, 171, 112, 318, 291
325, 328, 169, 432, 185, 110, 318, 230
322, 362, 165, 408, 182, 108, 347, 244
363, 353, 166, 415, 181, 109, 336, 239
405, 306, 178, 429, 198, 112, 336, 261
417, 373, 154, 415, 171, 105, 351, 250
449, 402, 151, 366, 151, 91, 395, 261
492, 394, 174, 406, 164, 98, 393, 296
490, 397, 187, 472, 176, 101, 439, 326
517, 436, 204, 528, 174, 104, 474, 330
503, 397, 218, 522, 190, 107, 465, 365
482, 372, 218, 531, 188, 102, 435, 354
452, 361, 209, 501, 187, 110, 392, 314
461, 387, 199, 455, 181, 122, 375, 308
400, 372, 171, 406, 183, 117, 433, 305
389, 399, 139, 422, 183, 117, 456, 276
445, 453, 155, 454, 215, 122, 467, 312
461, 448, 166, 461, 206, 112, 479, 320
482, 425, 177, 468, 212, 102, 479, 318
541, 419, 176, 446, 211, 104, 379, 308
537, 376, 165, 410, 197, 102, 381, 310
521, 318, 150, 388, 171, 93, 392, 312
492, 335, 143, 362, 184, 94, 381, 299
437, 331, 128, 341, 172, 102, 336, 276
390, 289, 123, 324, 163, 102, 350, 276
391, 305, 120, 309, 157, 111, 423, 297
336, 284, 122, 357, 150, 116, 402, 260
326, 265, 127, 376, 178, 114, 391, 252
333, 267, 135, 387, 193, 109, 411, 247
325, 271, 131, 412, 193, 114, 399, 227
300, 254, 142, 432, 192, 111, 270, 158
338, 240, 164, 345, 191, 108, 240, 195
322, 240, 166, 426, 172, 112, 234, 201
307, 274, 162, 406, 158, 118, 280, 218
317, 269, 163, 422, 155, 120, 333, 282
335, 269, 162, 435, 168, 114, 359, 302
318, 262, 137, 464, 200, 113, 386, 288
394, 267, 124, 417, 174, 128, 393, 281
422, 247, 128, 442, 191, 122, 353, 267
440, 262, 152, 510, 214, 118, 380, 243
436, 246, 149, 599, 220, 121, 388, 230
434, 282, 157, 630, 201, 118, 389, 220
377, 304, 169, 647, 204, 92, 458, 279
347, 329, 175, 691, 193, 85, 454, 284
294, 378, 158, 633, 180, 86, 460, 288
350, 400, 180, 603, 181, 114, 515, 349
331, 386, 174, 550, 170, 113, 514, 358
379, 371, 163, 528, 178, 117, 539, 341
414, 351, 174, 536, 201, 140, 584, 389
454, 284, 171, 533, 204, 136, 547, 383
444, 273, 155, 551, 215, 122, 543, 382
489, 342, 153, 570, 229, 127, 530, 385
498, 346, 148, 555, 233, 133, 457, 365
492, 356, 148, 484, 212, 118, 429, 326
446, 358, 168, 520, 217, 135, 429, 307
469, 363, 180, 422, 198, 133, 370, 257
434, 289, 177, 475, 193, 138, 417, 259
375, 289, 182, 493, 194, 151, 482, 298
390, 296, 171, 473, 195, 146, 484, 323
404, 305, 151, 421, 170, 130, 493, 326
402, 279, 133, 424, 162, 135, 506, 334
403, 283, 135, 357, 144, 126, 456, 326
422, 259, 126, 307, 128, 101, 414, 330
393, 209, 120, 319, 112, 99, 378, 296
407, 185, 136, 323, 123, 99, 385, 309
337, 230, 134, 330, 129, 85, 367, 329
346, 238, 147, 423, 153, 96, 369, 358
329, 236, 163, 426, 155, 97, 371, 334
325, 244, 164, 448, 161, 94, 380, 332
343, 262, 164, 452, 156, 102, 360, 334
359, 232, 166, 437, 161, 115, 376, 294
338, 231, 153, 327, 140, 112, 407, 267
336, 251, 139, 351, 144, 109, 389, 272
407, 297, 154, 359, 154, 114, 390, 287
396, 302, 154, 399, 157, 112, 380, 262
408, 311, 155, 440, 152, 95, 360, 277
401, 314, 169, 470, 156, 85, 324, 260
460, 305, 166, 500, 143, 94, 299, 240
413, 284, 154, 489, 130, 93, 298, 213
403, 263, 167, 481, 155, 95, 289, 211
404, 238, 168, 463, 176, 92, 253, 164
427, 260, 161, 442, 164, 93, 258, 191
376, 291, 172, 496, 187, 89, 268, 188
425, 354, 167, 478, 192, 91, 309, 251
401, 382, 158, 441, 164, 84, 354, 285
425, 392, 164, 479, 147, 98, 354, 290
446, 392, 157, 499, 162, 103, 385, 289
433, 371, 154, 469, 143, 101, 387, 301
389, 285, 148, 484, 132, 97, 358, 264
400, 250, 132, 503, 147, 96, 322, 231
347, 246, 134, 477, 157, 94, 355, 248
313, 221, 162, 458, 145, 102, 413, 276
328, 205, 170, 437, 147, 104, 412, 294
292, 203, 191, 463, 176, 111, 400, 282
319, 219, 194, 454, 170, 109, 430, 310
376, 217, 192, 475, 166, 118, 407, 314
360, 250, 175, 486, 184, 118, 334, 292
385, 292, 164, 457, 185, 113, 355, 253
424, 297, 146, 440, 155, 108, 367, 269
426, 312, 183, 568, 167, 112, 320, 221
380, 333, 174, 560, 161, 91, 371, 235
411, 312, 172, 561, 154, 80, 440, 264
447, 291, 171, 569, 170, 83, 441, 290
424, 314, 178, 570, 188, 82, 437, 294
460, 328, 144, 442, 174, 85, 587, 372
485, 323, 140, 486, 194, 96, 589, 373
476, 336, 155, 477, 190, 100, 550, 369
499, 352, 165, 483, 186, 100, 525, 390
499, 337, 162, 476, 181, 118, 563, 392
454, 330, 180, 536, 198, 119, 442, 362
444, 317, 197, 503, 179, 112, 389, 355
433, 287, 191, 520, 199, 133, 415, 329
421, 323, 179, 490, 186, 141, 455, 295
413, 336, 180, 500, 176, 131, 414, 279
423, 308, 157, 473, 168, 138, 467, 236
430, 334, 172, 538, 181, 140, 502, 221
466, 366, 175, 538, 159, 117, 486, 289
387, 358, 183, 567, 153, 110, 471, 295
384, 353, 184, 590, 170, 112, 520, 355
353, 354, 188, 609, 185, 105, 447, 359
317, 370, 183, 534, 184, 106, 424, 355
308, 374, 201, 535, 188, 98, 397, 300
309, 332, 199, 511, 200, 96, 377, 329
327, 349, 226, 467, 192, 94, 352, 262
404, 411, 221, 435, 197, 94, 368, 325
428, 382, 214, 461, 183, 94, 375, 329
427, 421, 231, 491, 217, 112, 360, 336
464, 441, 232, 546, 220, 112, 397, 338
485, 438, 214, 569, 222, 113, 379, 358
435, 391, 213, 587, 218, 114, 414, 315
560, 399, 225, 556, 217, 123, 433, 333
557, 351, 184, 534, 185, 117, 485, 370
558, 351, 195, 512, 189, 117, 505, 360
596, 358, 176, 492, 205, 121, 512, 369
627, 374, 174, 459, 181, 109, 461, 361
545, 380, 153, 472, 204, 99, 430, 357
555, 387, 150, 449, 195, 102, 415, 309
534, 401, 134, 433, 178, 109, 425, 303
484, 411, 143, 451, 181, 124, 403, 276
517, 390, 150, 434, 193, 135, 419, 289
530, 404, 138, 404, 163, 140, 442, 287
564, 399, 142, 418, 193, 147, 435, 365
599, 382, 147, 409, 201, 152, 362, 377
619, 373, 177, 425, 180, 137, 356, 386
603, 383, 192, 462, 186, 133, 395, 393
612, 353, 200, 558, 193, 133, 366, 396
613, 395, 213, 604, 202, 142, 387, 393
614, 418, 212, 630, 207, 142, 458, 363
613, 429, 202, 650, 215, 137, 446, 362
640, 454, 197, 650, 213, 143, 458, 349
645, 558, 197, 665, 269, 147, 537, 361
632, 532, 232, 680, 277, 136, 567, 346
775, 566, 238, 679, 303, 141, 568, 368
844, 569, 236, 710, 319, 151, 572, 372
825, 551, 240, 707, 323, 156, 590, 416
797, 469, 249, 710, 299, 153, 571, 395
810, 484, 202, 641, 279, 147, 510, 350
722, 519, 197, 604, 243, 133, 525, 414
777, 492, 200, 590, 266, 140, 544, 442
797, 488, 229, 609, 266, 155, 494, 411
804, 496, 230, 584, 257, 152, 467, 427
865, 561, 252, 639, 274, 150, 615, 502
818, 472, 255, 673, 275, 152, 591, 493
830, 524, 246, 627, 231, 158, 608, 541
800, 523, 243, 648, 236, 140, 619, 538
805, 505, 227, 614, 224, 139, 616, 532
733, 450, 207, 552, 192, 148, 486, 484
718, 449, 206, 541, 217, 158, 476, 436
570, 474, 204, 599, 242, 146, 527, 325
571, 493, 172, 566, 221, 137, 528, 335
615, 475, 224, 634, 270, 139, 669, 364
596, 429, 215, 635, 272, 129, 660, 328
618, 437, 222, 626, 257, 118, 714, 329
641, 347, 233, 617, 271, 134, 721, 437
679, 366, 242, 608, 280, 130, 705, 417
704, 456, 212, 570, 278, 130, 657, 439
781, 458, 243, 646, 301, 128, 674, 468
757, 460, 226, 644, 292, 125, 615, 471
784, 454, 229, 618, 274, 109, 618, 437
740, 417, 202, 588, 259, 108, 626, 434
658, 384, 231, 598, 216, 110, 536, 397
540, 388, 209, 550, 191, 115, 536, 372
592, 391, 232, 585, 188, 112, 509, 374
513, 409, 243, 574, 212, 121, 496, 343
653, 473, 258, 632, 239, 138, 574, 447
654, 466, 221, 576, 232, 136, 678, 481
693, 471, 238, 665, 255, 137, 704, 491
749, 484, 242, 703, 280, 167, 754, 521
754, 520, 226, 707, 245, 155, 724, 517
678, 455, 260, 700, 241, 147, 693, 438
703, 439, 275, 726, 264, 153, 729, 434
745, 490, 273, 654, 247, 153, 810, 518
670, 457, 255, 589, 226, 126, 856, 593
662, 429, 279, 588, 238, 118, 852, 577
688, 474, 260, 623, 247, 131, 821, 576
678, 464, 248, 637, 258, 123, 720, 555
614, 411, 237, 614, 242, 116, 609, 507
633, 438, 274, 682, 297, 128, 515, 373
642, 439, 306, 729, 299, 152, 594, 433
601, 418, 327, 702, 284, 138, 703, 460
700, 419, 327, 644, 250, 137, 767, 585
688, 424, 340, 805, 272, 138, 752, 547
654, 393, 313, 771, 210, 124, 752, 548
624, 357, 251, 712, 202, 104, 739, 543
645, 425, 219, 716, 223, 118, 711, 548
552, 426, 232, 735, 243, 124, 706, 451
628, 394, 234, 610, 230, 148, 722, 470
674, 429, 247, 567, 234, 157, 754, 512
695, 428, 279, 643, 257, 192, 776, 546
662, 396, 301, 614, 230, 194, 727, 556
671, 398, 288, 607, 214, 194, 704, 525
626, 434, 290, 664, 240, 176, 698, 513
583, 441, 305, 662, 243, 165, 665, 465
555, 468, 293, 609, 214, 113, 605, 420
550, 426, 278, 585, 214, 102, 630, 427
542, 405, 291, 575, 218, 111, 634, 425
526, 408, 312, 516, 212, 133, 705, 454
575, 385, 308, 511, 202, 140, 759, 502
644, 398, 301, 479, 191, 143, 772, 491
692, 420, 286, 567, 229, 145, 739, 450
732, 412, 339, 626, 248, 130, 677, 458
731, 387, 318, 563, 215, 106, 603, 459
753, 376, 316, 626, 233, 120, 634, 538
687, 374, 324, 641, 238, 134, 560, 540
714, 442, 342, 607, 219, 135, 592, 547
700, 467, 342, 757, 259, 150, 623, 590
713, 506, 338, 809, 280, 160, 645, 580
675, 528, 343, 767, 268, 154, 518, 468
698, 504, 320, 746, 280, 146, 601, 498
617, 448, 302, 813, 300, 149, 575, 481
555, 435, 224, 608, 244, 150, 611, 440
537, 461, 219, 531, 241, 146, 573, 434
530, 467, 206, 607, 276, 145, 584, 440
536, 486, 241, 609, 281, 166, 526, 419
521, 473, 240, 469, 255, 177, 569, 420
614, 488, 278, 641, 272, 170, 496, 368
695, 469, 279, 665, 273, 172, 557, 460
692, 435, 290, 608, 243, 180, 536, 465
778, 447, 287, 670, 232, 169, 554, 453
821, 450, 288, 714, 242, 150, 530, 446
746, 453, 267, 620, 245, 152, 560, 485
684, 408, 273, 645, 231, 143, 555, 396
651, 392, 259, 643, 227, 126, 563, 376
508, 329, 240, 572, 210, 103, 538, 334
446, 341, 244, 549, 199, 112, 546, 403
506, 351, 233, 524, 167, 122, 508, 378
509, 396, 230, 477, 180, 130, 463, 358
527, 405, 226, 498, 192, 131, 448, 358
533, 412, 240, 524, 228, 144, 519, 368
608, 379, 269, 555, 230, 149, 514, 368
601, 343, 315, 646, 257, 149, 608, 421
591, 320, 305, 641, 274, 142, 633, 472
608, 318, 298, 621, 261, 145, 644, 506
657, 347, 308, 628, 232, 140, 591, 505
587, 348, 293, 578, 230, 124, 593, 476
537, 404, 285, 430, 194, 102, 540, 438
494, 357, 273, 405, 149, 110, 516, 380
466, 374, 286, 403, 169, 119, 491, 320
419, 362, 284, 431, 192, 135, 490, 317
449, 374, 263, 453, 186, 131, 497, 312
448, 310, 204, 488, 192, 138, 495, 321
448, 318, 209, 488, 187, 133, 518, 354
481, 337, 227, 473, 187, 124, 584, 436
471, 325, 202, 458, 172, 108, 588, 439
439, 327, 217, 425, 162, 111, 580, 427
483, 406, 249, 444, 191, 106, 551, 427
500, 438, 253, 520, 210, 123, 496, 438
487, 419, 256, 521, 192, 123, 437, 391
502, 429, 277, 590, 218, 118, 411, 423
489, 422, 268, 601, 236, 127, 393, 410
504, 399, 262, 598, 241, 132, 393, 409
478, 358, 264, 540, 226, 116, 413, 367
426, 332, 220, 530, 223, 109, 390, 329
441, 344, 252, 504, 236, 143, 451, 331
471, 335, 282, 528, 242, 145, 457, 399
404, 271, 273, 523, 211, 144, 469, 407
436, 318, 281, 550, 232, 157, 483, 457
466, 335, 291, 578, 231, 159, 492, 480
423, 285, 261, 522, 192, 146, 467, 456
507, 292, 230, 516, 161, 143, 445, 402
527, 316, 233, 497, 171, 136, 410, 377
525, 338, 220, 475, 142, 118, 505, 371
535, 394, 214, 435, 141, 116, 590, 365
524, 415, 192, 399, 129, 91, 576, 349
489, 427, 182, 376, 166, 78, 564, 359
525, 435, 226, 554, 264, 111, 579, 359
517, 471, 236, 578, 265, 118, 459, 302
516, 459, 234, 617, 271, 129, 342, 281
523, 447, 235, 618, 271, 130, 320, 283
441, 447, 270, 677, 261, 143, 379, 323
421, 491, 228, 594, 243, 161, 407, 396
419, 412, 218, 562, 254, 162, 470, 399
402, 373, 242, 559, 269, 163, 533, 414
492, 404, 234, 564, 286, 175, 595, 450
512, 389, 197, 523, 276, 167, 582, 440
524, 359, 207, 455, 203, 136, 579, 389
526, 361, 196, 468, 189, 132, 525, 387
512, 351, 157, 421, 163, 119, 488, 368
519, 318, 184, 422, 129, 100, 429, 396
535, 341, 222, 471, 187, 119, 395, 369
550, 275, 232, 505, 211, 113, 369, 350
562, 304, 255, 552, 228, 114, 382, 343
634, 348, 316, 571, 238, 130, 355, 358
591, 411, 306, 624, 253, 138, 435, 350
587, 403, 282, 585, 217, 131, 519, 395
589, 430, 277, 576, 196, 131, 514, 414
591, 444, 275, 552, 204, 151, 558, 494
546, 427, 208, 577, 215, 155, 626, 514
570, 371, 203, 549, 208, 162, 569, 456
576, 356, 250, 505, 203, 152, 538, 424
518, 363, 236, 537, 214, 145, 526, 404
495, 344, 220, 490, 187, 123, 467, 318
517, 336, 227, 489, 174, 114, 406, 294
531, 355, 251, 481, 198, 136, 596, 404
516, 352, 247, 502, 194, 145, 630, 494
528, 325, 248, 429, 186, 152, 624, 495
616, 361, 256, 478, 202, 168, 621, 496
602, 375, 249, 435, 188, 158, 606, 491
591, 341, 226, 519, 177, 129, 419, 427
597, 337, 164, 491, 185, 121, 310, 318
627, 340, 156, 503, 183, 120, 308, 338
585, 282, 164, 524, 194, 105, 357, 357
559, 288, 166, 595, 207, 107, 347, 342
545, 312, 165, 490, 186, 97, 372, 331
519, 337, 165, 551, 182, 103, 377, 325
492, 316, 161, 572, 185, 107, 422, 322
505, 302, 126, 530, 172, 122, 448, 296
515, 275, 123, 447, 160, 127, 439, 301
505, 330, 154, 514, 175, 138, 426, 282
535, 373, 166, 450, 173, 134, 422, 267
507, 374, 171, 467, 167, 133, 390, 247
478, 390, 201, 490, 167, 110, 391, 270
499, 414, 221, 569, 198, 103, 435, 298
520, 416, 196, 522, 192, 96, 451, 329
581, 362, 223, 566, 213, 114, 451, 362
570, 376, 221, 540, 210, 109, 463, 356
651, 385, 202, 562, 210, 128, 411, 366
625, 371, 179, 524, 182, 127, 386, 360
580, 321, 203, 545, 176, 131, 396, 353
517, 344, 159, 517, 163, 114, 396, 340
514, 363, 184, 540, 169, 115, 376, 353
358, 356, 176, 502, 146, 106, 407, 331
454, 344, 184, 472, 148, 114, 574, 471
440, 358, 178, 450, 161, 113, 578, 459
439, 421, 178, 444, 158, 129, 574, 448
504, 398, 156, 399, 163, 137, 601, 451
520, 394, 170, 504, 199, 131, 581, 450
520, 409, 174, 541, 212, 125, 449, 304
585, 391, 184, 560, 208, 123, 432, 340
558, 328, 206, 564, 227, 115, 437, 348
520, 321, 215, 579, 228, 111, 435, 336
514, 319, 214, 478, 206, 114, 445, 352
498, 322, 207, 424, 203, 122, 390, 349
449, 320, 204, 424, 201, 131, 364, 321
519, 367, 214, 451, 192, 153, 428, 334
575, 425, 218, 474, 204, 154, 434, 344
609, 448, 215, 476, 204, 159, 468, 323
582, 441, 242, 549, 191, 150, 479, 299
612, 495, 243, 558, 200, 137, 517, 367
568, 468, 221, 578, 228, 117, 455, 363
539, 420, 210, 556, 227, 108, 428, 353
514, 389, 239, 562, 230, 102, 423, 429
490, 385, 230, 501, 237, 115, 407, 434
475, 333, 230, 476, 229, 132, 380, 374
480, 339, 244, 471, 188, 142, 397, 425
453, 333, 254, 533, 205, 148, 382, 421
437, 351, 277, 584, 227, 148, 412, 373
497, 404, 262, 565, 221, 151, 469, 400
453, 383, 270, 695, 226, 135, 486, 427
469, 341, 305, 714, 259, 152, 572, 419
476, 384, 295, 660, 226, 144, 625, 429
458, 362, 258, 646, 220, 142, 602, 392
570, 348, 271, 667, 236, 137, 558, 373
567, 341, 257, 509, 228, 141, 527, 349
566, 345, 218, 478, 182, 109, 459, 305
596, 361, 237, 530, 201, 108, 444, 305
603, 376, 244, 506, 186, 108, 423, 307
493, 320, 223, 501, 163, 106, 461, 321
500, 346, 318, 517, 171, 114, 455, 324
515, 358, 307, 483, 196, 106, 444, 317
455, 297, 292, 421, 186, 110, 407, 302
458, 288, 285, 419, 184, 113, 433, 319
501, 291, 306, 413, 184, 123, 423, 327
523, 266, 209, 441, 192, 125, 427, 322
569, 266, 242, 490, 217, 139, 455, 373
600, 287, 258, 497, 208, 142, 440, 378
592, 281, 251, 480, 198, 137, 413, 369
509, 396, 250, 530, 219, 131, 379, 366
478, 438, 271, 508, 221, 135, 415, 366
397, 432, 245, 471, 175, 119, 356, 290
351, 424, 261, 551, 184, 111, 355, 277
369, 438, 267, 547, 194, 109, 370, 298
442, 374, 243, 509, 172, 95, 471, 300
448, 338, 211, 479, 155, 99, 422, 302
460, 353, 239, 606, 187, 100, 438, 325
469, 365, 221, 572, 208, 105, 447, 327
513, 345, 221, 620, 215, 114, 593, 422
507, 309, 231, 623, 220, 129, 574, 422
535, 323, 239, 644, 218, 116, 600, 427
520, 311, 223, 544, 187, 120, 593, 418
541, 299, 198, 488, 164, 119, 625, 435
484, 304, 187, 433, 156, 129, 583, 395
398, 290, 197, 424, 149, 121, 532, 362
345, 250, 198, 427, 146, 112, 500, 343
335, 253, 186, 439, 185, 114, 490, 342
339, 282, 210, 496, 210, 116, 481, 329
447, 394, 220, 543, 225, 100, 455, 261
514, 414, 231, 557, 233, 97, 487, 268
526, 443, 214, 578, 247, 104, 538, 346
559, 474, 203, 527, 236, 96, 653, 365
589, 473, 208, 497, 211, 90, 630, 375
558, 384, 249, 493, 191, 98, 563, 384
533, 395, 223, 522, 192, 120, 563, 385
601, 447, 255, 528, 168, 116, 556, 350
615, 438, 266, 574, 148, 139, 423, 343
589, 418, 254, 616, 163, 143, 413, 337
566, 420, 213, 586, 195, 137, 430, 336
559, 438, 229, 549, 185, 114, 393, 322
542, 381, 192, 519, 202, 122, 353, 284
524, 367, 224, 527, 203, 110, 388, 274
515, 379, 240, 514, 238, 137, 551, 389
602, 400, 248, 521, 214, 147, 562, 482
601, 367, 271, 509, 224, 158, 562, 492
571, 389, 314, 505, 216, 153, 566, 507
627, 401, 290, 456, 223, 153, 574, 505
622, 411, 299, 398, 177, 130, 492, 429
551, 435, 284, 350, 165, 117, 499, 294
540, 436, 249, 348, 163, 115, 558, 318
554, 408, 198, 438, 204, 130, 572, 348
454, 358, 201, 432, 199, 117, 604, 360
509, 397, 199, 477, 203, 112, 547, 342
543, 362, 204, 493, 205, 122, 494, 352
565, 339, 209, 532, 195, 115, 446, 335
567, 346, 203, 448, 153, 101, 455, 322
610, 423, 242, 481, 183, 107, 393, 354
562, 359, 226, 451, 176, 109, 483, 368
496, 352, 240, 471, 185, 98, 493, 367
495, 388, 241, 433, 192, 97, 527, 418
506, 394, 238, 431, 198, 102, 529, 442
508, 358, 214, 394, 163, 105, 542, 435
480, 361, 211, 419, 168, 105, 475, 443
530, 356, 214, 403, 176, 112, 462, 442
568, 383, 229, 427, 180, 120, 438, 428
510, 384, 257, 442, 167, 116, 413, 382
440, 348, 247, 524, 189, 113, 384, 356
476, 391, 258, 511, 206, 120, 389, 328
409, 401, 288, 558, 205, 115, 385, 312
320, 381, 285, 609, 204, 109, 324, 241
390, 362, 272, 663, 264, 107, 296, 267
492, 480, 289, 620, 280, 121, 383, 311
535, 526, 273, 617, 259, 120, 411, 335
606, 540, 292, 566, 266, 133, 473, 373
669, 547, 300, 545, 265, 144, 487, 375
638, 585, 291, 462, 211, 145, 540, 359
561, 523, 269, 478, 188, 132, 490, 341
517, 472, 265, 467, 203, 130, 462, 323
477, 455, 205, 472, 177, 119, 416, 293
431, 412, 183, 422, 165, 103, 452, 322
435, 355, 175, 460, 165, 100, 385, 304
430, 310, 189, 417, 156, 90, 370, 280
472, 296, 195, 430, 142, 88, 361, 284
468, 312, 175, 431, 160, 86, 362, 281
421, 326, 183, 446, 162, 95, 307, 236
427, 348, 210, 463, 158, 101, 336, 275
460, 366, 203, 514, 166, 112, 413, 321
407, 360, 204, 573, 191, 116, 440, 332
383, 322, 204, 552, 185, 133, 452, 359
385, 314, 188, 534, 198, 144, 466, 370
400, 316, 200, 515, 204, 146, 452, 354
412, 311, 238, 586, 279, 166, 392, 324
412, 307, 253, 630, 297, 171, 441, 371
441, 351, 282, 652, 300, 168, 426, 400
465, 365, 288, 640, 291, 156, 444, 402
469, 340, 266, 629, 289, 153, 468, 408
425, 321, 285, 531, 215, 130, 457, 386
463, 332, 286, 387, 168, 125, 407, 336
486, 304, 256, 352, 152, 113, 436, 288
469, 304, 245, 335, 165, 110, 447, 285
446, 306, 279, 375, 165, 103, 418, 266
481, 346, 233, 323, 172, 105, 397, 296
428, 314, 215, 328, 168, 101, 359, 282
358, 363, 224, 341, 182, 110, 330, 247
427, 416, 255, 378, 173, 109, 291, 235
520, 422, 219, 325, 180, 115, 296, 230
549, 435, 222, 350, 162, 117, 295, 200
597, 548, 245, 442, 190, 143, 297, 194
645, 544, 287, 501, 207, 139, 306, 227
617, 518, 270, 477, 207, 160, 310, 284
545, 573, 277, 543, 202, 168, 383, 301
514, 558, 287, 583, 217, 174, 397, 311
462, 495, 270, 518, 194, 151, 402, 339
372, 461, 244, 487, 174, 142, 407, 327
365, 446, 255, 494, 170, 116, 385, 274
367, 382, 306, 430, 165, 102, 313, 249
324, 355, 324, 405, 159, 87, 336, 230
415, 398, 327, 399, 166, 86, 389, 204
493, 423, 304, 428, 168, 91, 418, 299
489, 432, 294, 438, 170, 99, 451, 330
478, 419, 236, 453, 176, 99, 497, 346
498, 440, 217, 419, 165, 110, 495, 357
459, 398, 223, 444, 164, 113, 474, 365
416, 399, 268, 490, 188, 108, 452, 330
427, 386, 264, 540, 206, 108, 419, 306
451, 379, 262, 543, 207, 112, 372, 318
511, 448, 244, 549, 225, 110, 349, 329
479, 403, 253, 565, 226, 103, 340, 301
523, 372, 235, 517, 198, 112, 363, 320
524, 364, 249, 461, 168, 108, 382, 312
533, 371, 246, 439, 167, 111, 591, 437
488, 260, 236, 436, 131, 100, 634, 454
513, 261, 215, 452, 128, 104, 665, 461
519, 304, 221, 521, 176, 111, 720, 501
568, 311, 222, 540, 210, 133, 749, 581
550, 392, 247, 550, 206, 150, 653, 516
559, 419, 251, 628, 228, 151, 660, 509
601, 437, 274, 660, 249, 157, 630, 517
585, 442, 258, 584, 235, 150, 566, 447
509, 444, 245, 572, 219, 131, 543, 345
510, 373, 230, 614, 224, 107, 500, 330
501, 389, 222, 572, 203, 104, 457, 329
485, 358, 197, 500, 177, 92, 513, 374
420, 306, 218, 502, 165, 91, 485, 390
453, 306, 243, 526, 159, 96, 539, 405
435, 342, 251, 471, 166, 104, 591, 449
404, 279, 251, 458, 171, 105, 618, 431
339, 284, 248, 524, 188, 112, 582, 378
360, 336, 228, 547, 191, 108, 611, 356
322, 330, 239, 530, 184, 102, 548, 330
311, 289, 256, 525, 177, 109, 490, 218
360, 342, 273, 497, 181, 112, 447, 225
347, 374, 283, 423, 162, 110, 410, 226
391, 365, 288, 374, 167, 112, 432, 312
456, 389, 280, 398, 173, 119, 435, 336
479, 410, 251, 391, 178, 115, 446, 363
509, 381, 262, 405, 169, 113, 467, 400
514, 353, 280, 381, 163, 107, 527, 416
494, 335, 287, 411, 176, 109, 456, 362
497, 343, 283, 465, 173, 104, 432, 343
543, 325, 295, 458, 166, 109, 425, 347
504, 312, 313, 437, 172, 125, 405, 309
568, 353, 304, 454, 182, 142, 376, 301
678, 365, 360, 437, 161, 147, 414, 353
678, 397, 370, 484, 170, 143, 447, 384
690, 408, 409, 550, 173, 129, 418, 380
686, 451, 381, 561, 184, 130, 412, 424
655, 463, 401, 578, 189, 121, 381, 409
556, 534, 421, 584, 187, 122, 396, 403
569, 487, 431, 477, 187, 125, 415, 448
568, 523, 392, 401, 175, 131, 412, 439
604, 532, 411, 395, 179, 126, 421, 400
640, 518, 415, 393, 173, 127, 450, 409
627, 440, 353, 403, 191, 115, 406, 366
570, 494, 323, 386, 182, 120, 368, 273
635, 470, 340, 421, 201, 131, 380, 348
595, 423, 335, 447, 203, 128, 500, 402
568, 388, 294, 464, 191, 123, 478, 410
576, 381, 297, 478, 164, 122, 469, 417
575, 326, 307, 558, 158, 121, 451, 424
442, 277, 281, 532, 136, 101, 427, 360
560, 286, 271, 518, 93, 91, 242, 313
580, 288, 302, 505, 129, 92, 258, 296
609, 283, 287, 503, 152, 97, 276, 283
632, 284, 283, 463, 167, 102, 324, 273
620, 307, 297, 477, 178, 104, 352, 309
550, 305, 284, 470, 190, 109, 382, 326
536, 298, 275, 440, 189, 112, 399, 342
501, 352, 343, 460, 197, 110, 408, 382
550, 387, 338, 415, 200, 111, 412, 412
629, 406, 333, 390, 196, 105, 446, 444
611, 392, 359, 389, 194, 104, 424, 415
635, 437, 406, 460, 185, 118, 429, 437
646, 386, 365, 417, 161, 123, 446, 461
592, 347, 365, 418, 191, 132, 486, 475
562, 331, 390, 421, 191, 151, 497, 483
576, 380, 385, 442, 186, 150, 496, 472
518, 373, 307, 364, 189, 136, 510, 440
593, 408, 326, 398, 194, 132, 494, 385
654, 439, 324, 422, 147, 112, 434, 364
724, 453, 293, 457, 159, 92, 378, 274
744, 427, 264, 466, 174, 145, 408, 287
796, 405, 298, 507, 171, 154, 349, 311
731, 392, 246, 464, 181, 164, 374, 312
681, 346, 285, 441, 185, 167, 387, 300
620, 326, 296, 406, 170, 165, 367, 293
607, 338, 350, 501, 172, 127, 379, 320
558, 388, 334, 454, 162, 131, 436, 388
547, 376, 328, 461, 151, 131, 400, 394
546, 379, 295, 491, 167, 136, 402, 385
534, 393, 316, 512, 165, 145, 446, 416
528, 395, 286, 388, 159, 144, 429, 412
538, 399, 349, 433, 179, 135, 387, 359
551, 384, 361, 419, 171, 128, 405, 380
559, 368, 366, 428, 155, 122, 409, 402
539, 332, 341, 426, 175, 118, 396, 377
521, 302, 349, 435, 170, 110, 390, 377
479, 212, 294, 449, 153, 122, 409, 354
498, 254, 293, 508, 180, 122, 413, 337
559, 263, 289, 466, 192, 136, 420, 319
540, 270, 300, 461, 187, 147, 407, 346
537, 282, 284, 481, 182, 152, 399, 338
552, 309, 299, 479, 193, 172, 391, 364
508, 292, 286, 409, 170, 171, 405, 341
443, 294, 337, 461, 152, 164, 388, 331
447, 299, 331, 499, 149, 156, 399, 303
470, 326, 349, 469, 150, 151, 400, 299
477, 304, 347, 408, 126, 137, 398, 301
489, 293, 352, 455, 131, 146, 359, 316
459, 280, 290, 407, 134, 140, 338, 323
462, 282, 312, 372, 138, 136, 311, 342
443, 254, 289, 369, 129, 134, 322, 328
452, 269, 264, 374, 130, 108, 280, 291
493, 315, 292, 331, 132, 98, 322, 287
517, 325, 341, 407, 162, 100, 515, 365
633, 342, 347, 413, 156, 99, 569, 432
631, 340, 353, 485, 168, 103, 591, 448
604, 312, 357, 485, 170, 104, 592, 439
565, 279, 341, 488, 165, 101, 588, 457
552, 272, 290, 441, 139, 112, 428, 388
416, 265, 287, 413, 149, 109, 350, 291
385, 271, 277, 405, 151, 107, 271, 277
410, 340, 277, 425, 157, 120, 308, 298
520, 346, 300, 462, 186, 133, 352, 325
512, 361, 342, 447, 182, 120, 351, 350
475, 341, 386, 452, 172, 117, 357, 341
522, 345, 399, 412, 181, 130, 406, 433
565, 314, 398, 479, 194, 117, 405, 449
471, 290, 375, 455, 197, 97, 353, 418
483, 268, 341, 474, 206, 103, 395, 397
501, 296, 301, 532, 219, 110, 427, 428
499, 336, 322, 559, 226, 92, 434, 362
421, 327, 332, 479, 207, 93, 437, 354
478, 347, 336, 494, 178, 95, 488, 400
489, 363, 360, 564, 186, 92, 510, 440
474, 361, 356, 514, 162, 88, 507, 419
423, 317, 340, 482, 127, 83, 473, 396
423, 304, 339, 484, 130, 99, 475, 381
347, 306, 337, 457, 133, 116, 430, 333
319, 287, 316, 368, 113, 122, 409, 293
336, 274, 344, 403, 122, 124, 437, 313
450, 306, 335, 388, 139, 140, 440, 320
488, 329, 372, 415, 147, 134, 462, 383
543, 338, 413, 433, 158, 127, 478, 381
568, 366, 413, 428, 155, 126, 465, 417
578, 356, 367, 364, 159, 144, 418, 431
490, 337, 370, 345, 154, 141, 397, 421
532, 352, 310, 328, 149, 151, 349, 363
497, 343, 244, 345, 150, 152, 377, 399
466, 348, 299, 355, 163, 146, 388, 370
438, 355, 378, 370, 155, 127, 381, 339
495, 362, 369, 362, 143, 125, 411, 360
468, 324, 379, 360, 148, 148, 496, 429
458, 298, 379, 432, 166, 142, 435, 380
441, 255, 376, 440, 163, 142, 428, 376
449, 242, 271, 438, 160, 142, 456, 367
401, 196, 259, 461, 175, 131, 440, 343
350, 190, 259, 498, 178, 109, 422, 293
348, 210, 269, 438, 150, 108, 468, 312
419, 218, 207, 437, 154, 104, 456, 288
503, 256, 262, 477, 163, 113, 505, 381
518, 316, 287, 485, 164, 117, 548, 423
552, 348, 308, 499, 184, 109, 480, 416
593, 357, 361, 547, 190, 112, 496, 427
555, 393, 425, 566, 206, 113, 491, 429
586, 429, 409, 544, 201, 126, 484, 429
658, 425, 403, 669, 209, 138, 537, 431
620, 391, 396, 658, 187, 126, 595, 418
573, 378, 361, 608, 184, 126, 582, 422
590, 373, 298, 567, 151, 133, 661, 442
489, 312, 289, 550, 144, 112, 624, 388
346, 269, 262, 392, 118, 98, 546, 343
337, 295, 263, 345, 111, 97, 495, 318
338, 283, 285, 322, 93, 102, 481, 304
308, 231, 277, 312, 90, 101, 347, 276
294, 240, 262, 309, 101, 98, 349, 240
346, 246, 276, 289, 96, 91, 384, 255
344, 221, 277, 395, 108, 90, 355, 273
343, 249, 244, 459, 125, 71, 363, 294
349, 255, 251, 501, 125, 82, 509, 340
382, 248, 251, 517, 120, 79, 544, 369
336, 233, 258, 509, 128, 89, 528, 372
426, 247, 238, 454, 127, 103, 667, 471
424, 256, 247, 405, 118, 111, 674, 457
437, 303, 225, 351, 130, 103, 625, 468
446, 320, 263, 347, 129, 109, 582, 464
501, 336, 269, 343, 140, 116, 660, 565
438, 336, 278, 308, 135, 107, 546, 484
435, 318, 280, 291, 138, 123, 534, 468
437, 273, 302, 349, 128, 119, 495, 444
396, 226, 277, 336, 131, 114, 516, 431
318, 198, 327, 332, 109, 105, 401, 258
320, 182, 350, 344, 118, 107, 423, 279
337, 209, 368, 332, 106, 90, 422, 331
288, 200, 372, 313, 101, 93, 464, 339
290, 233, 371, 363, 129, 102, 432, 330
326, 237, 333, 377, 137, 109, 431, 340
314, 254, 372, 377, 130, 124, 513, 384
312, 230, 360, 377, 128, 123, 523, 374
361, 258, 340, 342, 142, 121, 500, 353
354, 266, 345, 318, 129, 117, 552, 361
348, 312, 332, 333, 138, 112, 576, 369
428, 313, 257, 326, 149, 93, 502, 345
425, 311, 216, 335, 159, 95, 471, 325
381, 307, 226, 363, 161, 94, 458, 313
390, 289, 255, 389, 158, 101, 440, 329
387, 239, 289, 396, 137, 96, 397, 331
309, 207, 297, 408, 123, 101, 357, 301
296, 215, 311, 399, 117, 92, 363, 297
313, 213, 352, 372, 131, 115, 375, 325
331, 199, 326, 350, 135, 114, 337, 331
458, 213, 318, 449, 206, 125, 390, 355
496, 244, 354, 441, 208, 125, 427, 391
514, 248, 354, 438, 211, 124, 420, 393
557, 231, 307, 431, 207, 105, 412, 372
566, 252, 327, 423, 202, 101, 428, 349
497, 279, 319, 355, 156, 87, 382, 312
471, 276, 254, 389, 150, 86, 343, 276
470, 275, 254, 415, 156, 102, 477, 345
407, 284, 299, 422, 146, 114, 493, 352
368, 263, 289, 435, 154, 140, 494, 387
330, 217, 291, 376, 132, 141, 507, 384
342, 208, 303, 342, 138, 140, 504, 390
390, 274, 289, 326, 134, 131, 427, 394
406, 267, 255, 318, 125, 121, 391, 409
414, 283, 241, 315, 129, 108, 369, 383
464, 321, 270, 388, 170, 115, 374, 385
446, 345, 290, 404, 181, 122, 409, 393
395, 294, 313, 389, 179, 123, 355, 326
373, 293, 317, 452, 198, 123, 350, 291
372, 284, 323, 441, 186, 106, 388, 304
285, 282, 290, 428, 157, 99, 359, 297
289, 277, 290, 453, 172, 99, 360, 261
273, 285, 267, 456, 173, 91, 405, 297
289, 327, 291, 410, 154, 90, 435, 297
313, 333, 298, 412, 169, 100, 424, 298
363, 298, 294, 449, 170, 99, 473, 331
337, 274, 307, 410, 151, 115, 473, 346
389, 287, 358, 422, 156, 128, 442, 320
429, 251, 333, 421, 159, 134, 408, 323
429, 232, 414, 421, 159, 140, 463, 303
444, 265, 431, 353, 167, 152, 431, 285
450, 271, 511, 419, 162, 136, 399, 257
453, 259, 529, 438, 149, 126, 418, 260
418, 257, 567, 450, 148, 135, 449, 302
442, 281, 526, 492, 141, 126, 356, 315
403, 258, 523, 493, 135, 130, 343, 305
484, 270, 417, 425, 123, 130, 348, 304
438, 288, 352, 396, 132, 129, 319, 303
482, 339, 313, 393, 126, 112, 286, 265
478, 338, 304, 321, 121, 115, 323, 227
502, 350, 279, 320, 105, 103, 401, 227
430, 340, 275, 351, 117, 107, 408, 257
472, 320, 273, 360, 120, 133, 412, 246
470, 269, 246, 372, 133, 141, 484, 342
443, 267, 241, 444, 133, 136, 516, 365
393, 249, 275, 432, 143, 137, 460, 356
400, 250, 284, 486, 153, 134, 496, 392
385, 277, 309, 530, 178, 115, 496, 420
419, 283, 309, 524, 168, 109, 406, 341
450, 285, 327, 461, 170, 111, 360, 325
483, 287, 325, 470, 165, 98, 354, 353
544, 322, 357, 425, 169, 95, 348, 322
564, 304, 388, 381, 136, 91, 350, 284
547, 288, 417, 372, 142, 94, 408, 335
528, 276, 445, 440, 141, 98, 443, 343
497, 272, 446, 443, 150, 104, 514, 331
451, 280, 428, 420, 140, 110, 481, 306
410, 269, 393, 417, 140, 110, 516, 344
347, 264, 371, 424, 138, 107, 488, 299
329, 328, 319, 404, 145, 106, 457, 294
343, 334, 327, 369, 131, 108, 384, 274
293, 341, 375, 376, 131, 101, 380, 266
321, 346, 404, 392, 145, 104, 357, 241
385, 372, 408, 397, 143, 109, 423, 294
420, 322, 402, 383, 126, 104, 436, 319
477, 338, 407, 415, 125, 133, 454, 369
499, 276, 359, 418, 118, 140, 453, 391
490, 315, 347, 388, 101, 138, 449, 398
463, 282, 339, 399, 113, 133, 383, 374
438, 276, 320, 398, 114, 132, 388, 383
384, 249, 278, 388, 121, 96, 361, 343
358, 281, 261, 392, 126, 98, 367, 326
373, 253, 252, 410, 143, 100, 386, 328
381, 259, 261, 375, 137, 97, 406, 323
388, 264, 268, 378, 141, 103, 408, 285
375, 298, 252, 367, 156, 103, 445, 277
376, 271, 264, 364, 161, 105, 489, 289
338, 261, 228, 370, 155, 99, 464, 287
336, 269, 217, 385, 156, 100, 461, 280
316, 265, 224, 353, 156, 100, 469, 271
319, 223, 251, 347, 144, 112, 451, 273
360, 228, 240, 353, 130, 110, 379, 249
380, 233, 236, 333, 122, 121, 424, 228
377, 220, 226, 400, 158, 128, 407, 230
377, 253, 275, 451, 182, 168, 362, 235
375, 294, 260, 495, 183, 161, 376, 256
328, 299, 261, 468, 190, 152, 393, 292
382, 311, 257, 482, 197, 150, 333, 312
423, 320, 265, 413, 170, 141, 323, 306
484, 316, 239, 355, 152, 99, 332, 314
486, 310, 258, 330, 155, 107, 347, 344
481, 297, 255, 342, 152, 114, 363, 352
414, 262, 252, 302, 141, 108, 361, 310
392, 259, 250, 321, 157, 109, 377, 345
348, 279, 227, 343, 153, 95, 365, 354
338, 273, 198, 310, 139, 91, 322, 313
393, 283, 255, 323, 134, 88, 293, 276
448, 329, 320, 348, 140, 94, 278, 301
403, 332, 327, 378, 137, 101, 294, 261
411, 296, 334, 362, 147, 102, 280, 234
451, 306, 332, 348, 156, 96, 272, 269
472, 304, 307, 451, 178, 104, 294, 274
421, 261, 257, 455, 175, 104, 342, 273
464, 275, 234, 430, 171, 115, 366, 322
433, 293, 227, 469, 169, 124, 376, 328
472, 276, 250, 470, 167, 155, 388, 307
467, 311, 243, 425, 156, 157, 379, 310
517, 351, 239, 421, 155, 153, 348, 293
490, 338, 250, 415, 148, 145, 322, 239
520, 339, 248, 465, 169, 140, 360, 278
492, 351, 274, 575, 201, 113, 448, 299
458, 322, 267, 521, 193, 102, 559, 376
444, 284, 258, 591, 205, 108, 615, 427
507, 284, 250, 586, 211, 114, 612, 428
536, 275, 235, 554, 195, 117, 603, 414
528, 276, 215, 478, 159, 113, 531, 396
588, 277, 254, 506, 184, 120, 453, 370
588, 282, 267, 456, 190, 118, 422, 338
555, 330, 273, 461, 179, 111, 406, 361
532, 327, 294, 473, 173, 101, 516, 393
554, 336, 269, 503, 184, 95, 541, 415
489, 331, 254, 508, 168, 86, 555, 410
448, 333, 258, 495, 148, 89, 535, 408
415, 369, 245, 489, 142, 88, 553, 395
375, 363, 230, 434, 131, 94, 455, 349
304, 326, 268, 418, 128, 106, 489, 334
374, 332, 287, 414, 120, 109, 442, 272
389, 344, 281, 434, 122, 109, 424, 249
397, 262, 293, 451, 140, 112, 401, 239
399, 269, 294, 445, 167, 129, 448, 265
412, 286, 284, 396, 158, 122, 367, 239
328, 296, 248, 433, 152, 117, 364, 261
336, 268, 234, 388, 150, 121, 402, 327
333, 246, 226, 386, 145, 114, 403, 326
355, 231, 236, 379, 118, 107, 318, 292
374, 239, 221, 360, 114, 109, 336, 300
385, 231, 230, 331, 123, 109, 357, 307
375, 241, 238, 371, 153, 102, 398, 297
355, 257, 231, 368, 149, 108, 420, 291
370, 266, 206, 393, 158, 98, 445, 301
387, 278, 205, 423, 161, 100, 450, 319
368, 308, 215, 410, 179, 100, 415, 286
418, 311, 217, 449, 166, 113, 356, 231
431, 318, 211, 559, 236, 119, 398, 228
426, 352, 209, 620, 292, 131, 395, 263
411, 329, 190, 614, 299, 128, 368, 251
475, 291, 182, 623, 287, 126, 410, 284
458, 284, 174, 600, 285, 121, 389, 272
459, 267, 171, 496, 243, 115, 324, 278
476, 278, 193, 431, 163, 107, 336, 278
452, 303, 200, 420, 152, 107, 366, 297
413, 322, 186, 386, 162, 121, 333, 286
454, 324, 194, 346, 164, 114, 358, 332
465, 323, 205, 362, 141, 111, 369, 336
466, 302, 223, 477, 157, 120, 328, 355
472, 307, 238, 547, 195, 124, 344, 359
476, 316, 253, 642, 210, 128, 338, 347
400, 313, 244, 658, 218, 130, 312, 302
453, 320, 242, 667, 224, 137, 380, 374
478, 300, 213, 583, 222, 130, 417, 368
474, 261, 187, 535, 218, 129, 385, 334
448, 220, 155, 416, 201, 123, 380, 338
545, 260, 173, 519, 204, 129, 382, 357
496, 253, 167, 496, 198, 119, 341, 306
424, 232, 172, 531, 215, 111, 290, 247
499, 247, 196, 546, 215, 125, 388, 341
555, 255, 194, 551, 206, 114, 425, 350
470, 246, 190, 480, 183, 105, 477, 338
479, 233, 196, 500, 214, 112, 475, 325
498, 243, 193, 466, 200, 125, 488, 334
435, 235, 190, 422, 161, 106, 414, 252
423, 241, 188, 447, 174, 115, 407, 257
417, 210, 180, 384, 174, 117, 335, 251
431, 220, 189, 361, 140, 108, 281, 251
466, 249, 188, 326, 119, 111, 404, 313
472, 271, 169, 354, 145, 114, 398, 318
415, 259, 197, 341, 138, 112, 386, 312
410, 244, 199, 334, 143, 107, 389, 307
403, 284, 218, 387, 158, 118, 420, 292
357, 296, 216, 419, 165, 101, 315, 220
301, 272, 218, 443, 162, 96, 323, 204
313, 329, 204, 421, 163, 88, 324, 187
344, 358, 220, 440, 154, 105, 339, 183
344, 342, 186, 385, 132, 95, 294, 178
329, 304, 180, 355, 118, 90, 254, 178
342, 308, 168, 277, 93, 87, 265, 181
330, 258, 177, 311, 97, 94, 371, 275
287, 230, 171, 345, 104, 72, 370, 292
253, 292, 200, 559, 175, 70, 387, 310
235, 311, 220, 622, 198, 89, 404, 309
244, 332, 246, 651, 216, 105, 401, 333
279, 333, 244, 668, 216, 110, 319, 276
340, 351, 234, 644, 212, 112, 342, 297
335, 312, 222, 479, 168, 114, 322, 278
405, 302, 235, 531, 174, 111, 303, 291
417, 302, 226, 509, 160, 96, 413, 344
425, 297, 212, 468, 160, 84, 390, 361
399, 270, 202, 458, 158, 80, 354, 339
434, 249, 179, 454, 158, 85, 368, 336
378, 252, 136, 334, 160, 69, 461, 357
393, 238, 109, 371, 165, 74, 391, 342
375, 334, 113, 355, 156, 91, 395, 317
390, 337, 127, 366, 172, 106, 398, 328
449, 386, 140, 432, 185, 106, 471, 387
475, 414, 149, 402, 159, 108, 421, 372
448, 425, 146, 380, 152, 110, 394, 312
445, 348, 175, 404, 172, 100, 420, 319
416, 364, 171, 425, 167, 89, 425, 302
321, 314, 176, 375, 144, 87, 340, 267
260, 268, 179, 414, 142, 90, 304, 245
287, 284, 205, 434, 147, 96, 340, 278
343, 301, 191, 460, 129, 93, 324, 278
374, 275, 191, 479, 159, 115, 339, 276
415, 288, 196, 516, 200, 126, 385, 258
478, 342, 188, 506, 207, 127, 396, 267
513, 326, 185, 488, 219, 139, 367, 258
479, 336, 203, 477, 235, 142, 343, 258
544, 411, 208, 439, 213, 127, 330, 272
508, 406, 207, 395, 196, 127, 269, 244
505, 363, 223, 394, 193, 129, 225, 240
496, 349, 212, 391, 175, 114, 319, 258
502, 340, 189, 373, 162, 105, 339, 259
416, 288, 178, 404, 163, 107, 344, 246
415, 291, 182, 419, 152, 89, 410, 257
380, 288, 176, 403, 144, 94, 485, 261
347, 282, 174, 393, 149, 86, 444, 219
315, 258, 172, 376, 142, 95, 448, 199
334, 215, 181, 425, 158, 96, 474, 192
322, 203, 173, 414, 144, 94, 412, 193
301, 235, 166, 416, 156, 93, 340, 204
261, 236, 166, 426, 153, 96, 333, 205
342, 247, 170, 438, 150, 90, 333, 225
327, 244, 201, 451, 134, 82, 350, 250
342, 246, 198, 438, 133, 96, 356, 243
414, 250, 189, 432, 121, 95, 427, 247
432, 275, 207, 452, 156, 111, 466, 292
404, 273, 222, 481, 173, 123, 464, 276
452, 317, 182, 397, 172, 136, 424, 256
493, 326, 178, 409, 182, 142, 446, 276
462, 309, 235, 407, 193, 142, 367, 257
463, 319, 231, 370, 159, 138, 336, 220
438, 349, 219, 323, 143, 129, 320, 221
406, 375, 228, 310, 135, 117, 320, 252
339, 401, 226, 287, 136, 101, 283, 224
328, 413, 181, 266, 140, 119, 317, 264
317, 391, 177, 369, 140, 116, 290, 253
353, 381, 174, 466, 141, 115, 285, 246
319, 323, 183, 478, 150, 122, 273, 214
356, 277, 184, 526, 149, 125, 275, 226
326, 253, 209, 564, 143, 111, 232, 176
338, 248, 205, 523, 143, 101, 197, 166
403, 247, 216, 465, 144, 101, 209, 194
425, 293, 207, 449, 134, 129, 213, 247
406, 290, 229, 417, 126, 135, 271, 255
409, 298, 195, 410, 121, 129, 281, 253
477, 304, 192, 387, 116, 134, 293, 287
392, 309, 229, 403, 150, 138, 322, 296
383, 262, 228, 421, 162, 116, 328, 253
389, 264, 231, 453, 171, 108, 303, 243
376, 281, 261, 421, 166, 106, 296, 239
375, 310, 267, 462, 174, 108, 313, 255
396, 285, 227, 416, 141, 107, 280, 256
384, 316, 252, 401, 126, 95, 267, 272
367, 310, 237, 315, 104, 94, 244, 279
398, 303, 223, 339, 104, 93, 277, 292
307, 273, 208, 314, 145, 91, 279, 279
314, 289, 219, 313, 143, 81, 320, 273
328, 280, 188, 326, 149, 88, 327, 266
348, 290, 178, 402, 168, 88, 355, 275
421, 285, 157, 433, 188, 92, 396, 300
409, 278, 187, 453, 187, 87, 434, 289
412, 266, 179, 576, 210, 95, 422, 281
411, 245, 176, 577, 209, 96, 413, 277
391, 228, 217, 527, 196, 88, 383, 255
289, 234, 272, 551, 181, 88, 382, 240
288, 225, 267, 542, 159, 92, 335, 282
260, 229, 260, 410, 130, 87, 305, 276
265, 263, 270, 503, 174, 93, 362, 298
293, 262, 246, 525, 184, 97, 371, 302
332, 281, 196, 461, 178, 97, 358, 327
356, 300, 186, 446, 168, 94, 360, 299
391, 317, 191, 473, 177, 100, 398, 306
383, 277, 193, 418, 145, 91, 376, 281
410, 282, 187, 407, 134, 89, 391, 294
385, 253, 212, 430, 146, 90, 342, 276
364, 232, 216, 429, 152, 112, 336, 289
325, 221, 217, 422, 140, 106, 308, 274
329, 255, 221, 405, 134, 103, 356, 291
344, 278, 234, 463, 143, 103, 342, 287
349, 271, 197, 435, 125, 114, 354, 257
349, 271, 210, 436, 135, 98, 338, 228
355, 272, 220, 411, 133, 100, 316, 235
355, 272, 207, 410, 122, 101, 226, 205
306, 265, 246, 370, 113, 100, 250, 186
278, 278, 256, 381, 137, 82, 289, 213
312, 314, 236, 378, 117, 75, 296, 193
323, 307, 236, 370, 123, 68, 296, 187
309, 280, 262, 379, 148, 73, 284, 178
359, 274, 258, 355, 163, 95, 300, 202
472, 308, 251, 391, 157, 104, 369, 285
472, 304, 255, 374, 155, 110, 401, 311
479, 309, 264, 418, 157, 116, 409, 318
492, 314, 247, 391, 140, 117, 417, 322
480, 319, 202, 405, 142, 114, 391, 319
374, 292, 210, 363, 144, 109, 297, 231
346, 265, 238, 454, 153, 107, 253, 188
329, 260, 225, 417, 144, 102, 270, 202
324, 275, 229, 423, 150, 102, 281, 214
277, 257, 248, 445, 147, 99, 280, 211
290, 239, 237, 442, 135, 95, 269, 207
318, 266, 241, 410, 146, 94, 275, 241
292, 270, 233, 426, 160, 93, 249, 219
305, 253, 225, 419, 150, 95, 231, 218
365, 250, 189, 383, 157, 81, 286, 232
389, 316, 190, 395, 165, 85, 305, 247
370, 295, 193, 346, 154, 91, 309, 229
392, 278, 191, 328, 149, 101, 375, 303
369, 284, 181, 306, 148, 98, 393, 300
339, 294, 193, 310, 132, 102, 403, 307
391, 216, 192, 343, 127, 99, 381, 335
392, 218, 152, 322, 121, 94, 407, 345
380, 208, 153, 331, 114, 95, 356, 284
469, 217, 156, 365, 155, 108, 343, 298
505, 248, 145, 367, 160, 110, 316, 317
451, 260, 145, 333, 161, 114, 327, 265
452, 247, 150, 368, 170, 118, 299, 246
468, 255, 152, 391, 186, 108, 289, 241
377, 246, 179, 395, 161, 97, 291, 224
363, 204, 182, 422, 151, 92, 280, 187
346, 232, 190, 481, 167, 95, 274, 220
367, 258, 226, 487, 168, 87, 265, 238
347, 253, 282, 494, 163, 99, 272, 256
366, 259, 264, 475, 154, 104, 287, 259
397, 270, 269, 440, 150, 101, 259, 237
463, 277, 270, 371, 141, 103, 259, 227
441, 272, 257, 343, 131, 104, 254, 226
495, 347, 208, 319, 122, 102, 301, 235
475, 337, 218, 322, 126, 100, 269, 230
409, 330, 217, 341, 126, 101, 259, 228
364, 295, 225, 376, 122, 103, 260, 212
369, 311, 196, 358, 115, 101, 275, 187
316, 253, 191, 371, 119, 94, 230, 150
352, 253, 187, 420, 144, 89, 273, 173
339, 254, 185, 393, 142, 92, 297, 171
327, 265, 267, 440, 133, 82, 346, 194
345, 235, 289, 534, 165, 92, 373, 227
328, 242, 293, 566, 196, 104, 368, 240
330, 277, 291, 535, 195, 105, 347, 230
330, 297, 304, 572, 204, 103, 353, 234
369, 290, 239, 531, 204, 99, 294, 242
349, 314, 222, 497, 193, 91, 227, 205
404, 291, 219, 426, 156, 79, 289, 228
374, 278, 236, 438, 143, 80, 361, 248
374, 258, 225, 466, 147, 98, 349, 241
378, 313, 253, 455, 145, 111, 375, 242
391, 319, 257, 412, 135, 107, 392, 265
328, 325, 250, 435, 127, 105, 350, 240
431, 338, 236, 445, 129, 99, 327, 259
442, 348, 241, 385, 117, 89, 429, 362
407, 306, 191, 373, 125, 99, 410, 355
390, 272, 183, 426, 125, 110, 408, 364
424, 299, 197, 461, 153, 117, 426, 377
343, 290, 201, 444, 139, 121, 437, 356
324, 288, 190, 420, 148, 119, 351, 262
319, 291, 189, 436, 145, 114, 362, 252
381, 286, 209, 383, 146, 116, 371, 223
362, 255, 199, 370, 141, 119, 352, 216
388, 264, 184, 435, 164, 130, 281, 203
465, 260, 218, 477, 168, 133, 355, 243
470, 247, 225, 456, 174, 122, 345, 259
440, 254, 235, 465, 182, 123, 361, 270
430, 254, 233, 438, 183, 131, 362, 267
420, 229, 254, 381, 202, 142, 391, 290
351, 233, 221, 386, 195, 139, 303, 259
338, 268, 237, 384, 191, 140, 317, 251
307, 265, 219, 387, 201, 140, 288, 244
323, 278, 223, 402, 192, 134, 272, 257
291, 336, 201, 381, 154, 114, 375, 273
321, 331, 212, 326, 160, 119, 399, 279
324, 305, 198, 355, 160, 134, 401, 305
332, 305, 185, 345, 133, 126, 414, 333
334, 323, 189, 342, 131, 117, 425, 320
341, 271, 201, 407, 166, 128, 315, 294
285, 304, 192, 475, 163, 122, 303, 282
323, 333, 180, 442, 162, 104, 303, 246
380, 338, 187, 436, 165, 97, 294, 211
376, 317, 193, 434, 162, 94, 328, 208
391, 314, 186, 403, 124, 66, 318, 216
464, 298, 176, 344, 118, 73, 353, 232
429, 263, 181, 425, 119, 72, 338, 226
373, 258, 192, 440, 137, 73, 336, 236
382, 266, 190, 498, 144, 81, 306, 232
381, 256, 212, 478, 143, 81, 338, 208
311, 241, 222, 502, 152, 84, 331, 205
359, 248, 213, 504, 164, 100, 357, 231
397, 254, 206, 530, 159, 99, 368, 219
393, 242, 185, 457, 155, 93, 356, 223
424, 219, 173, 463, 161, 90, 324, 244
406, 235, 207, 468, 159, 86, 299, 243
390, 233, 207, 410, 136, 73, 273, 259
369, 223, 194, 356, 123, 87, 283, 294
378, 239, 208, 394, 119, 87, 297, 302
312, 251, 188, 374, 129, 95, 337, 304
338, 234, 154, 345, 142, 93, 334, 293
342, 284, 190, 344, 147, 94, 352, 283
335, 284, 200, 348, 146, 105, 415, 304
347, 272, 190, 308, 152, 106, 427, 306
461, 290, 237, 361, 149, 105, 416, 332
451, 332, 230, 365, 142, 112, 419, 351
433, 302, 202, 375, 143, 109, 403, 338
470, 328, 212, 366, 152, 96, 317, 283
470, 329, 207, 375, 145, 96, 354, 346
402, 312, 161, 345, 136, 94, 357, 311
395, 282, 158, 325, 119, 82, 335, 288
409, 266, 164, 373, 156, 77, 378, 308
358, 260, 150, 421, 164, 76, 388, 322
328, 254, 154, 434, 182, 89, 364, 233
325, 285, 170, 450, 190, 112, 370, 222
354, 279, 194, 456, 196, 122, 364, 246
336, 283, 190, 402, 169, 130, 356, 252
346, 314, 208, 356, 157, 131, 395, 260
321, 339, 220, 371, 145, 125, 398, 293
287, 332, 210, 331, 135, 101, 383, 309
235, 330, 187, 318, 143, 90, 432, 314
234, 323, 222, 380, 149, 85, 399, 286
219, 298, 217, 379, 166, 99, 374, 277
259, 305, 210, 337, 171, 104, 374, 260
304, 323, 231, 391, 181, 112, 373, 268
348, 327, 280, 429, 179, 120, 320, 270
382, 345, 257, 383, 167, 115, 322, 284
417, 333, 267, 423, 153, 96, 268, 273
433, 331, 279, 432, 146, 97, 339, 258
409, 306, 276, 387, 129, 90, 380, 289
412, 298, 257, 415, 118, 85, 400, 265
379, 299, 250, 423, 127, 101, 401, 246
387, 297, 214, 392, 116, 104, 429, 248
371, 263, 252, 419, 117, 100, 389, 267
375, 255, 247, 442, 122, 104, 355, 205
339, 239, 217, 377, 118, 109, 361, 215
357, 215, 231, 389, 129, 107, 402, 243
370, 239, 249, 396, 136, 107, 419, 255
370, 239, 203, 370, 136, 108, 370, 246
358, 235, 181, 339, 132, 104, 362, 284
378, 248, 199, 329, 131, 96, 346, 296
390, 251, 197, 337, 130, 90, 332, 301
342, 248, 187, 383, 146, 91, 310, 301
350, 258, 204, 409, 143, 84, 308, 289
378, 307, 223, 428, 149, 85, 329, 273
373, 319, 223, 467, 150, 91, 327, 248
343, 317, 223, 497, 148, 90, 291, 232
380, 321, 215, 482, 143, 109, 299, 231
371, 322, 194, 463, 138, 108, 331, 250
381, 267, 231, 503, 148, 110, 310, 229
420, 252, 227, 510, 158, 109, 367, 298
424, 259, 239, 469, 152, 114, 448, 302
376, 236, 256, 439, 149, 97, 449, 297
365, 238, 269, 444, 147, 95, 425, 288
373, 255, 262, 486, 149, 103, 421, 299
309, 258, 270, 499, 152, 108, 394, 256
332, 274, 261, 480, 157, 101, 307, 247
362, 272, 275, 513, 156, 95, 282, 246
353, 255, 286, 505, 178, 114, 312, 258
350, 255, 253, 429, 164, 122, 369, 271
370, 241, 237, 358, 162, 113, 340, 255
392, 221, 233, 404, 156, 113, 328, 247
379, 231, 214, 374, 159, 120, 316, 229
385, 248, 171, 357, 155, 109, 311, 206
327, 245, 162, 358, 154, 91, 244, 181
337, 251, 170, 375, 153, 94, 254, 158
288, 253, 175, 351, 166, 97, 263, 163
280, 237, 180, 315, 149, 93, 290, 228
276, 219, 188, 397, 140, 91, 265, 229
280, 222, 201, 371, 140, 91, 298, 239
317, 257, 202, 367, 144, 124, 332, 271
344, 241, 211, 375, 127, 126, 334, 286
344, 241, 212, 384, 135, 126, 316, 258
357, 250, 224, 319, 126, 121, 340, 291
359, 234, 235, 339, 133, 121, 300, 299
313, 219, 244, 334, 112, 86, 268, 280
274, 238, 231, 408, 114, 77, 256, 254
313, 260, 211, 404, 104, 78, 283, 280
301, 252, 204, 410, 102, 80, 292, 279
317, 296, 220, 486, 118, 100, 287, 254
323, 299, 216, 493, 123, 102, 288, 253
328, 295, 223, 432, 125, 99, 288, 277
305, 267, 228, 456, 125, 107, 262, 254
307, 280, 217, 442, 129, 123, 253, 243
291, 243, 193, 327, 111, 108, 290, 255
280, 231, 209, 299, 116, 107, 295, 262
272, 232, 205, 264, 107, 110, 305, 248
260, 236, 229, 301, 150, 112, 300, 233
300, 226, 242, 308, 157, 100, 308, 206
324, 284, 253, 315, 160, 108, 309, 192
340, 333, 242, 384, 163, 104, 316, 196
385, 352, 296, 412, 168, 104, 341, 207
439, 361, 293, 361, 146, 95, 360, 197
421, 363, 283, 359, 138, 93, 384, 235
433, 324, 263, 379, 137, 86, 469, 276
434, 259, 286, 381, 147, 89, 470, 273
407, 224, 258, 425, 167, 88, 463, 280
394, 221, 257, 492, 189, 89, 482, 314
449, 262, 267, 497, 197, 96, 470, 325
427, 250, 271, 589, 214, 97, 425, 337
405, 251, 231, 622, 202, 99, 455, 332
439, 269, 203, 591, 195, 107, 463, 323
429, 271, 187, 528, 170, 112, 463, 315
424, 259, 190, 535, 164, 107, 501, 329
441, 263, 184, 468, 153, 107, 502, 311
441, 256, 200, 439, 147, 106, 462, 320
425, 239, 184, 450, 142, 100, 444, 331
400, 259, 183, 514, 165, 94, 434, 324
331, 227, 181, 498, 163, 92, 369, 267
297, 232, 201, 459, 151, 99, 298, 261
288, 284, 187, 411, 159, 99, 335, 267
262, 319, 199, 372, 149, 97, 331, 269
260, 296, 196, 311, 119, 90, 286, 250
266, 296, 179, 369, 125, 97, 329, 264
279, 305, 161, 362, 121, 96, 349, 251
391, 322, 170, 368, 140, 91, 350, 255
392, 317, 194, 447, 155, 105, 349, 239
419, 338, 229, 440, 155, 117, 382, 250
493, 377, 250, 463, 156, 118, 362, 267
509, 367, 263, 542, 189, 117, 352, 304
476, 317, 309, 535, 174, 121, 332, 286
541, 308, 300, 472, 159, 123, 361, 284
512, 286, 271, 470, 161, 117, 406, 306
443, 230, 277, 437, 162, 116, 414, 328
444, 256, 274, 344, 122, 124, 429, 303
421, 264, 236, 321, 124, 129, 421, 306
313, 241, 220, 349, 131, 119, 456, 353
387, 266, 219, 359, 151, 141, 415, 348
410, 281, 190, 354, 151, 143, 401, 312
405, 262, 175, 358, 153, 137, 403, 301
429, 256, 142, 382, 151, 134, 501, 370
444, 262, 167, 419, 158, 137, 453, 320
386, 223, 198, 414, 135, 115, 430, 321
362, 231, 222, 382, 121, 114, 448, 328
355, 230, 252, 376, 113, 105, 474, 348
354, 229, 255, 390, 121, 106, 399, 263
371, 219, 245, 359, 109, 100, 406, 264
386, 219, 239, 399, 110, 97, 446, 257
396, 259, 218, 427, 117, 96, 419, 266
398, 269, 170, 422, 123, 106, 361, 235
385, 283, 177, 396, 116, 105, 347, 256
337, 315, 173, 410, 128, 103, 324, 268
345, 349, 183, 367, 126, 100, 266, 268
352, 313, 232, 333, 121, 94, 246, 240
334, 316, 256, 322, 119, 83, 263, 247
365, 308, 248, 338, 135, 78, 219, 226
385, 271, 255, 267, 131, 90, 281, 214
375, 268, 235, 332, 140, 103, 329, 213
367, 279, 219, 360, 159, 119, 358, 248
385, 260, 228, 405, 163, 126, 426, 282
350, 254, 226, 381, 158, 130, 462, 337
377, 273, 224, 431, 163, 122, 486, 350
372, 235, 241, 399, 161, 116, 549, 364
343, 197, 215, 435, 163, 104, 547, 347
334, 231, 191, 419, 164, 107, 493, 310
316, 235, 217, 501, 180, 113, 459, 262
319, 221, 228, 499, 171, 113, 477, 362
385, 285, 253, 497, 170, 110, 429, 377
468, 295, 329, 500, 160, 111, 489, 413
473, 302, 347, 588, 170, 106, 563, 416
503, 291, 329, 520, 142, 89, 612, 433
477, 287, 324, 525, 145, 89, 613, 368
440, 229, 306, 515, 147, 95, 572, 326
370, 239, 236, 522, 141, 87, 573, 309
406, 212, 232, 434, 123, 82, 503, 314
381, 261, 235, 444, 129, 93, 511, 345
420, 262, 232, 413, 119, 91, 449, 322
423, 260, 226, 414, 113, 100, 490, 349
432, 274, 210, 381, 110, 108, 461, 337
404, 265, 189, 377, 120, 108, 485, 345
408, 245, 205, 381, 121, 98, 430, 281
412, 247, 215, 387, 142, 117, 430, 301
437, 287, 231, 415, 147, 116, 399, 311
420, 266, 232, 367, 144, 114, 361, 297
403, 274, 248, 334, 133, 111, 379, 282
373, 279, 278, 366, 136, 116, 396, 292
332, 287, 303, 456, 140, 105, 442, 341
261, 249, 290, 477, 148, 91, 432, 302
270, 260, 323, 551, 163, 84, 432, 304
331, 257, 336, 558, 180, 95, 435, 331
467, 242, 312, 569, 184, 97, 405, 341
476, 225, 277, 522, 177, 90, 347, 269
506, 238, 283, 469, 168, 91, 355, 273
544, 249, 237, 409, 157, 90, 389, 325
514, 260, 184, 466, 141, 82, 360, 354
472, 253, 173, 454, 146, 80, 381, 364
642, 281, 237, 452, 221, 180, 390, 292
693, 262, 240, 434, 214, 176, 381, 297
584, 256, 261, 446, 213, 186, 365, 281
543, 255, 277, 461, 202, 186, 384, 270
570, 240, 301, 489, 153, 152, 334, 249
631, 219, 344, 520, 169, 154, 351, 289
563, 266, 339, 535, 183, 173, 453, 291
636, 275, 328, 561, 191, 187, 413, 302
644, 304, 320, 559, 190, 213, 435, 312
657, 344, 306, 507, 184, 205, 438, 311
686, 353, 293, 521, 169, 205, 523, 328
740, 366, 361, 632, 183, 201, 537, 298
685, 359, 348, 599, 185, 199, 551, 289
744, 383, 340, 565, 181, 176, 527, 308
755, 370, 332, 570, 172, 180, 616, 365
695, 363, 362, 641, 165, 198, 654, 343
605, 308, 312, 550, 164, 180, 591, 359
650, 325, 331, 597, 159, 161, 607, 361
626, 282, 345, 613, 160, 158, 633, 351
642, 299, 362, 625, 172, 165, 588, 302
666, 294, 295, 509, 181, 146, 506, 346
693, 298, 327, 552, 168, 148, 522, 349
734, 282, 343, 506, 176, 163, 547, 379
711, 308, 329, 504, 182, 169, 528, 382
697, 268, 311, 487, 173, 161, 563, 404
669, 296, 313, 508, 179, 149, 535, 361
663, 344, 278, 469, 170, 151, 540, 376
582, 362, 252, 541, 158, 164, 495, 343
586, 358, 261, 533, 156, 158, 502, 342
570, 368, 292, 530, 159, 171, 497, 386
540, 336, 292, 574, 165, 173, 553, 395
516, 306, 270, 558, 163, 176, 522, 371
548, 314, 253, 492, 155, 162, 531, 374
538, 290, 238, 589, 155, 155, 556, 362
594, 293, 190, 589, 160, 156, 483, 305
630, 301, 277, 551, 155, 175, 440, 287
648, 280, 303, 564, 166, 170, 446, 269
610, 252, 309, 559, 184, 168, 418, 251
649, 276, 341, 477, 179, 171, 392, 251
602, 265, 358, 501, 177, 178, 530, 263
577, 266, 291, 457, 163, 155, 555, 279
624, 302, 289, 433, 153, 162, 543, 275
670, 298, 284, 431, 138, 162, 536, 278
616, 261, 243, 432, 141, 170, 519, 275
580, 258, 260, 413, 155, 165, 407, 244
555, 242, 267, 449, 168, 181, 354, 191
452, 191, 257, 458, 169, 168, 452, 223
345, 189, 264, 439, 162, 157, 473, 222
353, 223, 288, 438, 170, 144, 523, 233
315, 273, 258, 501, 180, 126, 509, 209
351, 306, 241, 487, 170, 136, 505, 228
419, 313, 304, 495, 168, 141, 424, 203
412, 307, 320, 532, 193, 152, 448, 192
406, 289, 343, 535, 187, 159, 395, 190
517, 275, 331, 438, 162, 160, 416, 223
540, 263, 343, 422, 164, 137, 434, 219
489, 264, 294, 450, 171, 145, 455, 224
539, 285, 276, 467, 148, 131, 429, 236
595, 292, 214, 446, 149, 138, 415, 239
521, 246, 251, 460, 155, 132, 410, 225
535, 224, 287, 483, 157, 132, 397, 232
531, 221, 294, 437, 152, 122, 418, 222
504, 193, 291, 410, 168, 127, 429, 235
501, 194, 298, 500, 177, 127, 452, 234
550, 233, 264, 490, 175, 132, 447, 238
553, 232, 212, 453, 165, 123, 464, 237
575, 238, 198, 507, 189, 132, 430, 248
628, 312, 190, 493, 179, 140, 433, 264
656, 315, 178, 390, 160, 133, 457, 289
613, 287, 184, 436, 164, 145, 504, 282
566, 286, 197, 466, 164, 153, 516, 280
570, 284, 195, 405, 130, 158, 543, 284
563, 210, 194, 424, 129, 157, 581, 256
498, 190, 222, 441, 138, 150, 566, 229
490, 203, 223, 411, 137, 154, 542, 230
470, 196, 227, 407, 145, 152, 495, 215
443, 172, 210, 389, 145, 139, 505, 228
403, 166, 232, 389, 135, 127, 431, 221
374, 184, 207, 422, 135, 130, 402, 207
409, 177, 208, 449, 124, 114, 350, 206
445, 192, 205, 468, 115, 116, 397, 206
460, 194, 211, 496, 126, 123, 395, 199
438, 183, 179, 495, 146, 156, 418, 209
477, 155, 222, 466, 151, 161, 468, 231
436, 155, 212, 438, 156, 157, 488, 224
429, 152, 220, 441, 160, 152, 450, 227
419, 146, 213, 445, 155, 145, 423, 211
421, 153, 216, 414, 146, 111, 419, 205
423, 178, 290, 500, 192, 119, 469, 214
438, 193, 312, 521, 209, 124, 486, 222
427, 209, 311, 469, 206, 136, 515, 224
444, 229, 342, 473, 214, 157, 530, 236
475, 228, 378, 529, 259, 164, 546, 251
471, 240, 336, 511, 233, 167, 529, 256
454, 230, 320, 503, 227, 172, 540, 245
519, 218, 362, 567, 242, 169, 560, 267
497, 201, 337, 547, 237, 154, 539, 266
592, 250, 323, 509, 184, 163, 561, 350
653, 245, 308, 486, 174, 148, 520, 352
708, 283, 401, 538, 191, 176, 479, 382
653, 295, 368, 572, 182, 177, 438, 364
713, 350, 390, 583, 179, 175, 482, 361
608, 323, 382, 611, 183, 157, 432, 271
549, 311, 388, 628, 194, 168, 396, 235
567, 271, 294, 559, 168, 139, 420, 226
568, 248, 279, 469, 161, 135, 476, 252
495, 164, 306, 496, 169, 155, 437, 248
590, 169, 310, 523, 197, 171, 462, 257
553, 170, 336, 508, 184, 163, 457, 266
540, 194, 389, 538, 193, 163, 438, 243
559, 216, 392, 550, 199, 183, 352, 218
574, 220, 381, 537, 203, 180, 470, 242
510, 232, 391, 586, 186, 170, 448, 253
544, 267, 400, 636, 205, 168, 451, 249
505, 269, 364, 648, 191, 168, 471, 236
580, 341, 366, 660, 185, 145, 544, 250
593, 346, 324, 646, 169, 136, 460, 221
568, 342, 382, 555, 159, 157, 454, 190
549, 306, 327, 455, 125, 153, 436, 176
530, 293, 312, 413, 128, 159, 479, 218
525, 204, 308, 393, 128, 163, 407, 205
496, 195, 313, 384, 143, 156, 396, 210
499, 179, 201, 369, 135, 156, 440, 240
514, 219, 196, 350, 134, 156, 475, 284
558, 223, 183, 353, 142, 138, 438, 277
522, 210, 198, 387, 146, 128, 544, 319
548, 211, 207, 374, 136, 126, 551, 324
550, 212, 219, 351, 132, 96, 507, 301
517, 172, 209, 352, 130, 93, 469, 254
485, 197, 235, 415, 119, 95, 477, 255
433, 185, 216, 367, 116, 98, 447, 222
403, 173, 205, 355, 125, 112, 433, 206
396, 172, 205, 367, 131, 113, 441, 219
403, 184, 231, 391, 128, 111, 465, 245
452, 152, 212, 338, 129, 111, 481, 235
509, 149, 228, 323, 124, 114, 412, 247
496, 162, 256, 416, 174, 115, 402, 254
510, 152, 250, 461, 180, 114, 441, 275
519, 150, 248, 463, 194, 126, 467, 274
466, 150, 276, 526, 200, 137, 483, 283
453, 155, 272, 577, 209, 141, 485, 272
463, 161, 255, 520, 171, 159, 551, 290
439, 193, 276, 494, 164, 167, 536, 267
477, 206, 281, 469, 160, 177, 556, 285
486, 207, 301, 512, 205, 205, 510, 269
472, 217, 293, 479, 194, 204, 502, 266
479, 242, 314, 496, 186, 206, 470, 263
483, 264, 307, 576, 190, 211, 477, 301
542, 260, 291, 643, 201, 201, 495, 321
540, 273, 300, 609, 149, 174, 503, 323
630, 283, 336, 634, 152, 168, 550, 368
655, 271, 314, 631, 167, 158, 582, 379
682, 230, 297, 619, 193, 159, 585, 345
660, 236, 311, 558, 199, 188, 572, 331
712, 233, 278, 510, 209, 207, 589, 350
730, 260, 304, 510, 229, 217, 566, 342
727, 259, 300, 499, 229, 218, 547, 332
738, 275, 360, 493, 209, 222, 542, 372
776, 296, 366, 559, 198, 199, 569, 353
732, 317, 376, 581, 197, 179, 580, 360
685, 286, 365, 602, 177, 186, 630, 405
677, 305, 406, 673, 181, 171, 744, 454
628, 293, 365, 625, 174, 147, 751, 429
560, 274, 343, 618, 172, 167, 715, 435
618, 256, 391, 658, 182, 161, 681, 426
619, 283, 391, 647, 209, 148, 611, 354
636, 252, 364, 690, 241, 167, 455, 289
740, 253, 381, 701, 241, 173, 466, 312
790, 300, 412, 685, 253, 161, 459, 313
784, 297, 380, 634, 243, 184, 533, 311
762, 286, 356, 623, 228, 172, 572, 317
745, 290, 368, 526, 175, 160, 543, 300
661, 290, 350, 524, 198, 173, 531, 267
571, 247, 474, 551, 185, 185, 574, 294
504, 235, 460, 587, 200, 189, 533, 291
563, 227, 453, 583, 196, 202, 526, 294
602, 252, 432, 544, 205, 202, 538, 321
599, 244, 425, 521, 187, 204, 564, 334
589, 223, 272, 517, 175, 189, 535, 293
587, 237, 253, 445, 149, 160, 493, 275
512, 238, 245, 420, 143, 159, 471, 259
461, 198, 280, 499, 141, 161, 459, 233
465, 216, 284, 494, 133, 161, 381, 213
444, 219, 257, 416, 130, 153, 326, 210
445, 196, 293, 471, 153, 154, 323, 205
377, 168, 345, 514, 157, 139, 345, 191
427, 177, 320, 482, 163, 138, 320, 177
414, 172, 322, 492, 168, 108, 328, 181
497, 180, 353, 566, 182, 128, 379, 234
506, 198, 330, 571, 179, 137, 382, 236
506, 207, 264, 538, 169, 144, 341, 232
548, 215, 262, 567, 168, 138, 367, 285
532, 211, 264, 578, 172, 156, 375, 274
533, 212, 270, 533, 172, 203, 375, 255
506, 189, 270, 474, 156, 204, 378, 261
534, 198, 288, 456, 152, 212, 398, 311
435, 243, 320, 419, 166, 257, 409, 282
440, 261, 321, 408, 166, 250, 409, 287
364, 267, 271, 402, 160, 221, 369, 261
479, 280, 241, 399, 159, 217, 430, 279
513, 278, 231, 391, 159, 212, 418, 241
505, 217, 170, 356, 125, 151, 380, 210
510, 185, 173, 416, 151, 164, 394, 218
515, 153, 181, 455, 162, 160, 391, 221
432, 130, 185, 482, 177, 158, 355, 199
424, 128, 186, 536, 192, 156, 362, 203
475, 149, 201, 560, 206, 156, 390, 230
500, 205, 210, 517, 182, 145, 376, 247
534, 216, 249, 473, 164, 134, 379, 251
599, 263, 263, 454, 174, 146, 367, 294
569, 264, 287, 409, 170, 152, 384, 288
568, 277, 279, 369, 165, 163, 388, 328
602, 240, 268, 356, 175, 156, 411, 317
565, 254, 279, 401, 181, 147, 424, 334
570, 218, 273, 395, 167, 154, 420, 307
610, 216, 252, 392, 174, 152, 398, 339
607, 202, 265, 377, 166, 148, 363, 291
569, 205, 301, 363, 164, 166, 384, 309
619, 202, 271, 310, 163, 169, 390, 297
543, 196, 278, 300, 153, 149, 382, 285
522, 199, 266, 276, 151, 147, 394, 243
492, 185, 255, 363, 147, 142, 461, 253
504, 185, 227, 376, 145, 125, 442, 246
476, 196, 226, 407, 151, 140, 424, 242
533, 210, 232, 415, 159, 147, 458, 266
537, 196, 253, 441, 155, 139, 440, 272
529, 196, 263, 381, 159, 143, 372, 258
508, 198, 271, 431, 172, 149, 371, 230
463, 164, 271, 422, 170, 160, 361, 229
467, 149, 249, 442, 178, 153, 311, 204
421, 149, 293, 462, 174, 161, 347, 202
415, 155, 290, 464, 168, 159, 443, 207
411, 162, 264, 428, 150, 174, 438, 240
401, 157, 304, 495, 149, 157, 430, 229
383, 165, 324, 519, 138, 165, 429, 219
388, 171, 285, 484, 126, 166, 395, 207
434, 169, 306, 490, 135, 164, 289, 204
428, 164, 340, 539, 143, 141, 277, 168
511, 232, 310, 436, 165, 149, 311, 210
551, 229, 310, 384, 158, 164, 355, 244
631, 232, 320, 411, 173, 173, 411, 287
654, 241, 360, 455, 188, 198, 464, 296
701, 236, 370, 403, 179, 205, 478, 315
651, 191, 371, 445, 144, 192, 517, 300
623, 199, 398, 530, 149, 174, 529, 289
547, 191, 384, 571, 157, 178, 490, 246
503, 183, 319, 532, 141, 167, 469, 230
465, 207, 262, 501, 152, 164, 460, 227
484, 193, 260, 515, 163, 167, 400, 211
429, 193, 214, 443, 172, 185, 396, 192
434, 194, 238, 402, 154, 161, 411, 186
429, 187, 233, 408, 150, 144, 398, 184
418, 165, 241, 414, 137, 141, 375, 165
382, 160, 209, 362, 133, 140, 393, 168
375, 162, 197, 410, 131, 127, 381, 181
386, 166, 165, 359, 130, 130, 358, 198
376, 168, 194, 346, 124, 127, 360, 202
351, 159, 183, 345, 125, 123, 372, 200
437, 166, 229, 409, 134, 119, 420, 234
438, 137, 225, 347, 121, 105, 377, 220
414, 154, 216, 336, 115, 98, 381, 200
428, 167, 196, 343, 119, 99, 383, 198
414, 173, 241, 380, 121, 102, 402, 189
341, 163, 254, 356, 107, 113, 406, 175
322, 163, 277, 364, 126, 138, 487, 181
342, 170, 289, 363, 131, 142, 480, 185
347, 171, 299, 351, 127, 148, 490, 207
460, 199, 288, 394, 130, 153, 537, 275
457, 204, 261, 356, 138, 154, 499, 257
527, 204, 253, 349, 117, 130, 420, 266
517, 194, 249, 383, 124, 129, 446, 268
520, 186, 232, 380, 123, 119, 410, 254
441, 168, 231, 330, 128, 113, 351, 205
487, 167, 235, 332, 124, 101, 357, 217
421, 174, 220, 366, 126, 108, 385, 205
444, 164, 221, 355, 123, 128, 362, 202
422, 175, 229, 360, 126, 127, 356, 196
398, 155, 201, 359, 122, 123, 339, 173
337, 170, 182, 407, 122, 125, 314, 192
341, 176, 169, 396, 122, 119, 288, 189
298, 174, 162, 381, 126, 93, 280, 193
269, 178, 165, 416, 124, 105, 292, 207
273, 187, 169, 407, 122, 115, 373, 218
304, 193, 172, 370, 114, 121, 360, 182
302, 205, 212, 429, 126, 138, 388, 203
316, 204, 210, 415, 110, 146, 432, 203
325, 189, 205, 379, 110, 151, 481, 205
331, 192, 243, 370, 108, 143, 432, 198
308, 179, 259, 404, 146, 148, 446, 209
296, 192, 225, 357, 137, 167, 416, 189
262, 226, 228, 364, 143, 165, 391, 195
308, 224, 303, 463, 170, 160, 425, 197
360, 277, 278, 470, 176, 167, 413, 224
431, 274, 315, 454, 160, 173, 468, 262
432, 254, 325, 436, 165, 158, 556, 273
488, 221, 333, 441, 167, 171, 557, 303
476, 244, 278, 385, 148, 176, 494, 305
457, 180, 294, 407, 144, 168, 560, 286
406, 200, 313, 427, 158, 161, 526, 250
446, 192, 321, 434, 162, 176, 512, 271
432, 222, 311, 442, 171, 198, 661, 230
422, 198, 306, 426, 164, 193, 673, 227
401, 196, 313, 489, 166, 205, 730, 291
397, 178, 268, 559, 156, 206, 749, 301
475, 195, 278, 554, 165, 203, 698, 280
520, 173, 322, 614, 209, 193, 590, 337
640, 254, 343, 620, 216, 202, 681, 383
692, 312, 338, 617, 225, 195, 565, 393
821, 379, 330, 577, 238, 201, 536, 399
784, 411, 303, 575, 242, 208, 649, 412
811, 430, 264, 553, 229, 195, 682, 409
763, 415, 272, 618, 280, 207, 617, 374
734, 377, 285, 619, 286, 226, 645, 337
588, 316, 285, 609, 275, 223, 664, 327
694, 295, 394, 649, 264, 221, 620, 352
665, 270, 403, 639, 242, 234, 610, 331
784, 287, 426, 633, 213, 250, 719, 407
854, 313, 443, 602, 212, 242, 785, 499
947, 347, 488, 618, 228, 290, 912, 559
872, 376, 444, 571, 237, 292, 896, 537
895, 407, 444, 555, 246, 288, 853, 523
838, 376, 531, 573, 257, 292, 795, 545
755, 359, 505, 589, 252, 290, 822, 488
752, 341, 482, 575, 244, 238, 675, 421
735, 287, 494, 627, 260, 218, 645, 413
675, 262, 490, 656, 258, 204, 660, 429
602, 258, 340, 568, 215, 172, 635, 320
722, 283, 342, 512, 207, 190, 517, 302
621, 265, 314, 485, 204, 192, 516, 306
642, 266, 233, 441, 172, 189, 533, 307
628, 243, 230, 410, 164, 186, 512, 286
629, 234, 287, 481, 173, 174, 516, 333
555, 210, 291, 524, 184, 140, 491, 298
586, 212, 276, 517, 170, 134, 470, 284
605, 211, 324, 528, 170, 136, 455, 297
716, 227, 343, 539, 164, 135, 549, 342
734, 246, 302, 472, 148, 124, 505, 308
716, 227, 402, 474, 134, 152, 494, 324
687, 242, 406, 465, 127, 155, 508, 337
666, 238, 398, 504, 162, 159, 507, 338
575, 241, 418, 526, 177, 172, 414, 309
567, 230, 442, 559, 215, 172, 432, 303
568, 252, 358, 608, 232, 154, 423, 286
650, 239, 362, 640, 253, 160, 406, 295
631, 238, 349, 590, 237, 148, 458, 274
614, 216, 296, 553, 230, 156, 500, 274
581, 212, 258, 531, 203, 158, 493, 273
640, 224, 273, 440, 185, 155, 498, 297
566, 218, 247, 403, 162, 151, 541, 291
594, 219, 216, 385, 157, 152, 558, 311
668, 255, 232, 452, 158, 133, 510, 304
701, 256, 294, 478, 184, 172, 469, 302
736, 264, 267, 461, 175, 180, 468, 348
731, 278, 269, 447, 167, 180, 414, 335
797, 279, 365, 504, 167, 191, 335, 349
730, 255, 409, 559, 219, 219, 397, 363
694, 279, 366, 578, 202, 193, 464, 355
600, 282, 418, 633, 217, 219, 517, 291
653, 321, 448, 636, 218, 224, 553, 325
598, 342, 377, 612, 212, 214, 564, 334
580, 335, 338, 507, 153, 187, 556, 320
601, 324, 348, 511, 149, 189, 554, 334
596, 334, 288, 460, 134, 146, 561, 334
525, 322, 253, 478, 149, 141, 546, 312
523, 346, 264, 483, 146, 142, 524, 288
539, 352, 262, 506, 143, 154, 494, 276
544, 343, 246, 483, 135, 151, 513, 256
534, 311, 229, 465, 151, 150, 473, 254
579, 267, 260, 444, 140, 175, 432, 242
590, 200, 257, 407, 145, 174, 431, 218
622, 224, 237, 373, 142, 166, 535, 240
597, 234, 268, 404, 163, 174, 476, 248
606, 214, 283, 441, 162, 183, 438, 231
554, 263, 279, 422, 156, 151, 433, 223
464, 272, 271, 509, 165, 169, 448, 223
444, 289, 311, 519, 189, 181, 440, 257
488, 280, 315, 514, 194, 179, 458, 269
466, 288, 294, 482, 177, 167, 479, 272
460, 238, 266, 493, 177, 166, 515, 271
545, 250, 287, 463, 185, 190, 603, 301
509, 205, 252, 479, 164, 174, 539, 257
492, 241, 227, 451, 143, 166, 530, 241
577, 249, 248, 464, 148, 167, 583, 300
592, 276, 278, 503, 155, 180, 604, 306
537, 271, 288, 502, 144, 128, 507, 272
587, 284, 265, 465, 136, 136, 488, 266
599, 260, 259, 465, 153, 146, 476, 285
504, 258, 255, 495, 179, 157, 417, 227
495, 234, 205, 464, 171, 142, 352, 212
488, 213, 144, 396, 156, 143, 337, 220
501, 189, 150, 404, 169, 127, 312, 222
482, 272, 155, 384, 186, 115, 362, 214
506, 288, 148, 326, 172, 100, 416, 253
552, 310, 214, 349, 187, 109, 423, 279
576, 310, 226, 376, 187, 128, 456, 279
653, 397, 277, 408, 206, 158, 551, 372
637, 364, 272, 389, 202, 169, 550, 366
622, 369, 279, 406, 210, 190, 497, 350
640, 409, 269, 456, 234, 187, 567, 394
647, 435, 268, 494, 268, 181, 585, 442
553, 400, 216, 459, 255, 170, 545, 382
771, 469, 232, 487, 253, 179, 532, 396
845, 460, 230, 490, 261, 166, 590, 408
840, 411, 209, 455, 246, 186, 575, 359
848, 390, 209, 459, 249, 186, 583, 331
876, 385, 252, 515, 285, 185, 583, 359
734, 305, 235, 536, 288, 170, 599, 356
708, 297, 234, 537, 294, 160, 594, 388
705, 310, 216, 506, 308, 133, 547, 382
725, 340, 217, 478, 294, 139, 502, 385
739, 372, 195, 458, 296, 129, 528, 377
762, 346, 181, 392, 278, 123, 495, 371
701, 380, 172, 444, 252, 138, 401, 322
715, 389, 173, 448, 219, 146, 393, 332
718, 424, 169, 427, 200, 129, 392, 309
706, 365, 140, 369, 127, 126, 298, 289
701, 363, 153, 382, 172, 127, 540, 321
708, 334, 137, 294, 173, 120, 578, 336
643, 307, 149, 281, 184, 109, 576, 325
614, 218, 143, 258, 188, 116, 571, 328
558, 230, 176, 316, 226, 163, 581, 340
519, 268, 194, 356, 205, 168, 413, 309
593, 286, 205, 359, 199, 171, 367, 292
599, 300, 209, 368, 193, 175, 361, 305
568, 291, 209, 393, 205, 176, 375, 295
538, 286, 181, 455, 192, 145, 474, 297
501, 254, 160, 419, 182, 153, 454, 297
409, 227, 167, 455, 215, 144, 463, 292
546, 222, 152, 448, 213, 142, 473, 285
526, 254, 158, 462, 215, 154, 463, 275
571, 286, 169, 470, 204, 158, 420, 287
563, 284, 175, 505, 221, 145, 418, 270
648, 336, 191, 502, 194, 159, 432, 301
544, 331, 191, 549, 212, 169, 427, 291
585, 344, 203, 527, 206, 161, 445, 325
565, 333, 208, 497, 205, 155, 392, 296
547, 354, 207, 533, 235, 161, 392, 290
428, 331, 210, 529, 245, 155, 406, 264
432, 352, 213, 475, 229, 140, 396, 274
400, 346, 202, 531, 227, 131, 389, 257
452, 336, 200, 518, 238, 135, 382, 259
458, 319, 194, 474, 195, 143, 365, 284
460, 298, 163, 485, 184, 151, 317, 267
440, 287, 188, 495, 197, 162, 315, 251
425, 298, 190, 447, 198, 179, 343, 250
415, 289, 180, 401, 186, 195, 429, 266
457, 278, 184, 381, 183, 183, 427, 266
437, 281, 177, 353, 182, 167, 436, 265
458, 297, 151, 380, 164, 154, 445, 265
463, 257, 139, 376, 149, 137, 463, 257
417, 281, 142, 464, 161, 101, 366, 223
444, 288, 130, 469, 157, 87, 365, 214
488, 261, 141, 491, 173, 123, 409, 227
570, 249, 143, 503, 206, 133, 410, 245
571, 271, 173, 508, 217, 133, 358, 252
643, 247, 162, 421, 193, 130, 370, 261
631, 289, 159, 406, 207, 139, 387, 250
697, 354, 167, 487, 206, 128, 381, 250
641, 345, 164, 442, 173, 123, 403, 256
648, 375, 133, 459, 182, 118, 396, 228
557, 378, 130, 491, 191, 129, 389, 208
573, 350, 176, 529, 192, 148, 366, 213
478, 302, 171, 425, 183, 146, 319, 194
455, 325, 166, 419, 183, 147, 284, 160
531, 288, 163, 407, 160, 151, 304, 173
579, 281, 161, 421, 164, 145, 335, 202
558, 267, 141, 469, 161, 128, 346, 187
548, 255, 158, 535, 203, 130, 340, 205
549, 236, 170, 565, 215, 153, 344, 240
488, 228, 173, 564, 216, 170, 333, 255
491, 230, 176, 553, 215, 175, 344, 251
453, 228, 157, 534, 223, 177, 338, 253
453, 281, 125, 492, 180, 173, 349, 241
459, 309, 121, 467, 189, 164, 369, 211
421, 295, 135, 478, 192, 149, 362, 201
391, 323, 168, 467, 188, 154, 361, 209
421, 344, 170, 392, 159, 151, 337, 211
407, 321, 197, 463, 187, 143, 327, 214
372, 272, 191, 499, 180, 132, 290, 218
400, 258, 185, 495, 181, 123, 277, 216
546, 220, 175, 520, 193, 117, 208, 245
535, 258, 178, 533, 197, 109, 209, 248
573, 230, 144, 472, 185, 107, 216, 254
581, 233, 141, 421, 182, 115, 231, 256
620, 247, 136, 389, 202, 137, 235, 250
475, 250, 119, 356, 190, 125, 229, 197
479, 208, 109, 328, 196, 128, 221, 195
470, 217, 120, 277, 183, 134, 224, 207
499, 217, 135, 325, 173, 122, 225, 224
474, 230, 153, 419, 165, 103, 240, 235
468, 219, 153, 423, 177, 127, 238, 240
460, 199, 145, 422, 180, 128, 237, 225
473, 234, 144, 412, 179, 126, 252, 216
488, 256, 140, 389, 185, 139, 269, 212
466, 234, 123, 327, 179, 144, 264, 193
464, 231, 109, 297, 166, 119, 265, 175
456, 229, 119, 307, 162, 117, 279, 194
435, 236, 126, 332, 159, 109, 285, 208
442, 226, 124, 382, 152, 101, 289, 205
419, 241, 132, 354, 134, 96, 304, 213
422, 276, 159, 374, 141, 100, 323, 217
453, 322, 156, 440, 134, 108, 315, 227
435, 294, 158, 439, 146, 110, 298, 209
394, 291, 151, 409, 140, 114, 335, 206
439, 310, 157, 416, 151, 113, 330, 210
461, 290, 154, 426, 151, 129, 315, 211
432, 281, 164, 351, 144, 125, 306, 185
472, 288, 156, 391, 139, 133, 302, 181
463, 281, 172, 403, 156, 122, 237, 163
480, 243, 168, 427, 176, 121, 206, 146
460, 237, 155, 405, 181, 108, 198, 145
459, 175, 150, 431, 199, 113, 336, 160
460, 142, 148, 372, 193, 108, 363, 177
470, 155, 135, 348, 205, 114, 373, 184
429, 182, 126, 302, 195, 129, 380, 197
449, 191, 128, 298, 196, 148, 380, 216
439, 203, 116, 242, 179, 139, 278, 204
480, 218, 121, 354, 203, 165, 271, 212
470, 213, 129, 431, 211, 180, 292, 204
468, 206, 122, 442, 209, 174, 350, 195
485, 201, 190, 523, 274, 170, 356, 181
504, 224, 194, 540, 272, 168, 378, 198
420, 217, 197, 483, 259, 142, 375, 177
403, 218, 190, 397, 249, 128, 357, 176
389, 210, 196, 424, 252, 123, 325, 172
325, 205, 121, 329, 163, 113, 326, 156
395, 200, 137, 371, 219, 123, 333, 162
403, 195, 129, 367, 214, 122, 313, 168
421, 199, 135, 417, 218, 111, 294, 181
448, 216, 128, 392, 199, 115, 293, 211
443, 214, 128, 395, 208, 101, 346, 227
380, 226, 123, 350, 160, 96, 375, 212
395, 245, 118, 355, 169, 98, 372, 205
414, 254, 104, 332, 143, 103, 391, 206
446, 236, 96, 313, 147, 98, 379, 181
459, 234, 90, 283, 132, 113, 363, 170
432, 214, 83, 291, 123, 114, 305, 166
447, 194, 97, 348, 129, 109, 321, 174
423, 182, 103, 355, 129, 112, 293, 151
383, 200, 107, 366, 144, 111, 288, 146
399, 243, 109, 389, 165, 102, 240, 155
430, 237, 112, 374, 168, 99, 276, 162
446, 247, 117, 316, 160, 104, 279, 158
445, 245, 114, 289, 154, 99, 277, 167
527, 266, 110, 289, 142, 98, 278, 178
531, 231, 113, 272, 123, 99, 280, 173
512, 219, 97, 271, 127, 102, 242, 172
510, 232, 104, 357, 153, 111, 319, 238
538, 229, 101, 372, 160, 114, 318, 238
434, 244, 111, 385, 166, 108, 316, 226
399, 240, 114, 408, 170, 111, 310, 224
394, 269, 137, 505, 189, 109, 300, 220
379, 254, 124, 445, 160, 93, 198, 140
326, 252, 149, 436, 162, 90, 257, 134
300, 213, 155, 443, 168, 110, 250, 129
315, 214, 161, 445, 163, 114, 264, 134
325, 220, 153, 330, 132, 121, 287, 139
271, 224, 151, 329, 135, 124, 313, 134
330, 249, 136, 329, 146, 128, 286, 140
369, 242, 132, 311, 122, 124, 317, 146
419, 250, 133, 287, 135, 124, 314, 145
534, 231, 140, 315, 153, 127, 301, 155
598, 225, 144, 315, 160, 134, 288, 187
594, 218, 138, 388, 157, 166, 290, 188
681, 210, 136, 433, 182, 165, 303, 228
657, 217, 147, 501, 186, 161, 353, 227
579, 204, 127, 493, 175, 160, 382, 222
511, 242, 121, 501, 174, 165, 437, 214
569, 241, 130, 471, 163, 136, 463, 262
480, 252, 130, 478, 138, 135, 441, 223
527, 258, 104, 387, 128, 142, 481, 264
526, 271, 110, 378, 122, 142, 480, 267
577, 257, 116, 411, 131, 130, 431, 275
508, 257, 122, 397, 158, 127, 412, 223
479, 259, 121, 331, 161, 123, 427, 231
452, 238, 130, 378, 166, 116, 345, 178
504, 221, 133, 387, 169, 106, 321, 175
463, 195, 131, 384, 166, 111, 345, 158
452, 183, 127, 349, 137, 111, 353, 182
462, 192, 125, 369, 135, 134, 325, 177
464, 242, 140, 333, 122, 134, 412, 191
389, 241, 157, 321, 125, 129, 497, 223
383, 238, 173, 340, 184, 127, 495, 225
405, 233, 165, 362, 184, 123, 476, 214
423, 241, 168, 330, 184, 97, 495, 211
385, 210, 158, 342, 180, 95, 442, 207
435, 213, 156, 339, 180, 115, 337, 191
531, 212, 136, 272, 123, 112, 298, 196
510, 252, 137, 240, 118, 117, 307, 203
478, 233, 150, 238, 127, 117, 309, 209
483, 226, 142, 247, 139, 126, 300, 231
470, 230, 127, 269, 136, 112, 304, 211
346, 232, 132, 325, 134, 111, 349, 212
354, 188, 136, 349, 145, 103, 409, 222
376, 183, 116, 345, 140, 100, 403, 215
432, 165, 113, 315, 127, 86, 379, 191
421, 197, 121, 388, 131, 127, 378, 198
460, 197, 122, 337, 119, 137, 440, 197
457, 201, 132, 320, 132, 146, 417, 198
444, 208, 146, 325, 134, 151, 421, 203
369, 226, 159, 349, 150, 167, 456, 229
375, 231, 142, 245, 143, 145, 475, 228
326, 227, 147, 275, 161, 155, 399, 231
375, 253, 134, 317, 164, 184, 409, 254
389, 280, 130, 324, 170, 183, 396, 251
379, 286, 117, 296, 163, 169, 413, 226
369, 259, 123, 291, 160, 160, 419, 232
415, 273, 114, 282, 164, 146, 402, 217
357, 245, 124, 356, 154, 116, 352, 171
380, 220, 122, 383, 158, 111, 388, 197
464, 206, 118, 389, 155, 117, 409, 203
454, 204, 113, 385, 167, 142, 385, 197
432, 185, 111, 396, 152, 137, 403, 198
455, 197, 93, 289, 142, 126, 411, 196
489, 206, 86, 263, 152, 144, 535, 212
479, 195, 117, 282, 166, 153, 504, 207
474, 246, 139, 413, 178, 139, 527, 204
462, 255, 141, 404, 175, 138, 511, 192
436, 242, 143, 431, 174, 137, 513, 181
437, 220, 148, 451, 184, 119, 365, 124
395, 256, 122, 466, 169, 97, 369, 151
396, 210, 113, 394, 159, 128, 333, 163
398, 203, 118, 384, 162, 140, 382, 177
403, 207, 120, 361, 172, 137, 446, 222
331, 230, 134, 366, 151, 132, 429, 223
310, 206, 133, 333, 155, 135, 406, 207
309, 207, 122, 285, 143, 97, 418, 197
343, 238, 137, 312, 150, 80, 504, 253
340, 254, 152, 330, 142, 87, 452, 227
360, 245, 131, 277, 123, 95, 475, 237
362, 231, 140, 319, 138, 94, 506, 249
347, 235, 152, 348, 151, 93, 485, 247
281, 249, 143, 387, 169, 93, 343, 175
361, 234, 127, 364, 162, 85, 351, 173
365, 226, 141, 406, 182, 85, 332, 191
381, 307, 144, 388, 201, 88, 391, 199
441, 331, 143, 419, 197, 87, 430, 228
479, 320, 137, 393, 195, 96, 447, 257
420, 316, 159, 420, 199, 110, 446, 268
382, 310, 158, 403, 195, 121, 487, 254
403, 254, 148, 401, 179, 114, 447, 239
380, 228, 139, 384, 199, 124, 425, 238
384, 220, 151, 357, 182, 122, 435, 243
502, 230, 130, 318, 182, 124, 432, 244
505, 233, 129, 399, 205, 110, 400, 241
516, 241, 130, 419, 199, 122, 378, 245
515, 223, 134, 408, 182, 111, 384, 261
494, 193, 113, 424, 194, 127, 402, 233
428, 180, 117, 511, 201, 115, 428, 223
449, 218, 113, 430, 168, 114, 437, 243
419, 180, 109, 423, 157, 110, 440, 233
467, 206, 108, 428, 150, 113, 445, 201
454, 210, 109, 403, 128, 98, 420, 197
452, 254, 105, 326, 132, 114, 386, 214
506, 235, 101, 353, 128, 119, 394, 203
541, 247, 103, 352, 149, 114, 362, 209
481, 237, 108, 382, 143, 117, 412, 211
516, 232, 122, 396, 147, 110, 416, 229
492, 185, 131, 405, 143, 97, 403, 209
450, 188, 150, 387, 144, 99, 428, 219
480, 236, 159, 382, 120, 98, 439, 229
598, 248, 149, 333, 130, 117, 402, 234
586, 254, 155, 354, 126, 117, 413, 235
593, 262, 144, 345, 124, 129, 441, 248
599, 261, 128, 375, 137, 129, 370, 236
594, 207, 116, 416, 145, 131, 349, 214
517, 191, 121, 418, 160, 120, 329, 194
556, 192, 121, 426, 177, 135, 334, 191
594, 181, 139, 414, 183, 149, 373, 191
568, 180, 206, 385, 175, 144, 417, 185
568, 195, 238, 344, 175, 141, 437, 191
546, 194, 267, 352, 169, 132, 473, 213
552, 226, 312, 314, 152, 116, 539, 246
520, 223, 307, 307, 136, 74, 503, 244
508, 202, 295, 323, 134, 76, 466, 252
431, 189, 272, 290, 123, 73, 449, 253
441, 205, 254, 272, 119, 85, 485, 247
371, 174, 189, 251, 122, 98, 507, 209
352, 194, 196, 268, 125, 110, 523, 197
355, 201, 156, 263, 131, 113, 545, 186
365, 203, 172, 290, 134, 127, 563, 186
362, 204, 188, 282, 124, 124, 489, 177
474, 225, 196, 324, 143, 119, 547, 249
483, 232, 198, 413, 193, 113, 545, 252
507, 249, 209, 517, 211, 114, 526, 248
499, 248, 203, 528, 215, 101, 501, 245
501, 251, 186, 557, 212, 106, 526, 245
399, 245, 181, 555, 207, 112, 390, 162
381, 236, 190, 519, 196, 120, 362, 152
384, 215, 185, 429, 172, 113, 364, 167
391, 221, 175, 470, 180, 132, 377, 170
386, 230, 188, 503, 240, 141, 420, 187
437, 237, 195, 501, 243, 136, 388, 194
432, 246, 173, 468, 220, 139, 433, 220
389, 293, 167, 457, 221, 148, 452, 210
453, 294, 215, 407, 233, 158, 504, 226
428, 274, 210, 382, 192, 145, 501, 209
436, 260, 219, 379, 173, 154, 544, 230
453, 248, 225, 410, 175, 148, 541, 224
542, 189, 231, 437, 189, 161, 556, 233
521, 187, 193, 438, 178, 153, 570, 246
517, 203, 177, 408, 161, 164, 563, 261
513, 214, 164, 473, 238, 161, 546, 247
502, 230, 159, 443, 232, 160, 553, 239
460, 243, 170, 405, 222, 147, 522, 242
455, 252, 164, 398, 211, 134, 459, 217
451, 236, 170, 427, 230, 128, 420, 193
422, 222, 174, 397, 159, 122, 466, 184
419, 197, 172, 422, 156, 127, 408, 167
379, 193, 143, 432, 162, 140, 444, 156
362, 175, 134, 427, 154, 138, 450, 159
388, 208, 123, 390, 133, 133, 453, 170
388, 203, 105, 341, 130, 131, 346, 162
371, 206, 112, 361, 153, 120, 336, 160
393, 206, 137, 384, 161, 99, 279, 158
379, 207, 150, 421, 179, 118, 351, 156
390, 178, 153, 443, 186, 118, 338, 153
382, 196, 144, 429, 184, 116, 351, 166
412, 189, 141, 429, 178, 115, 364, 164
383, 176, 125, 416, 161, 119, 393, 167
400, 193, 125, 375, 151, 96, 349, 175
422, 189, 154, 353, 143, 109, 375, 185
394, 175, 156, 365, 156, 113, 357, 174
396, 192, 171, 320, 153, 112, 385, 205
404, 214, 165, 324, 168, 108, 388, 198
375, 212, 168, 344, 183, 120, 383, 193
339, 229, 138, 329, 169, 101, 354, 181
379, 227, 132, 325, 160, 106, 345, 175
354, 223, 113, 312, 150, 127, 353, 188
369, 209, 125, 350, 141, 123, 338, 223
459, 224, 117, 346, 134, 117, 356, 234
469, 210, 120, 344, 133, 133, 395, 236
456, 231, 134, 360, 136, 130, 435, 240
464, 249, 155, 429, 165, 121, 417, 215
499, 261, 151, 404, 173, 120, 429, 213
419, 233, 161, 397, 160, 128, 400, 201
377, 236, 170, 390, 163, 120, 364, 195
363, 220, 162, 401, 164, 127, 332, 203
351, 194, 147, 339, 151, 120, 322, 190
364, 169, 142, 289, 128, 120, 269, 150
404, 195, 135, 266, 131, 115, 269, 155
458, 193, 119, 277, 135, 124, 272, 176
488, 219, 131, 279, 137, 115, 299, 190
493, 219, 135, 261, 121, 121, 352, 202
465, 224, 133, 328, 155, 148, 422, 247
428, 199, 148, 320, 154, 138, 409, 239
386, 186, 182, 348, 182, 129, 500, 239
337, 155, 188, 361, 177, 128, 478, 220
358, 194, 182, 371, 185, 135, 557, 249
329, 191, 180, 315, 158, 116, 539, 213
333, 200, 163, 331, 156, 125, 532, 210
316, 210, 138, 289, 116, 123, 442, 191
302, 204, 133, 214, 115, 123, 496, 209
328, 168, 171, 209, 103, 105, 372, 177
307, 159, 176, 241, 119, 94, 359, 167
293, 162, 176, 259, 127, 84, 380, 171
330, 189, 165, 272, 130, 83, 400, 172
388, 182, 154, 351, 124, 79, 333, 162
353, 181, 101, 365, 128, 99, 317, 154
401, 191, 97, 346, 116, 95, 308, 162
433, 222, 126, 376, 109, 99, 301, 161
457, 213, 127, 381, 108, 108, 292, 183
424, 235, 125, 315, 106, 114, 311, 178
417, 247, 178, 333, 120, 112, 337, 193
415, 259, 178, 333, 120, 116, 330, 189
460, 248, 166, 285, 141, 129, 332, 199
432, 249, 173, 310, 155, 121, 389, 178
421, 248, 179, 307, 157, 120, 390, 169
440, 264, 139, 255, 156, 134, 434, 167
456, 259, 144, 284, 164, 133, 420, 199
391, 235, 136, 301, 151, 122, 431, 188
398, 220, 143, 273, 139, 123, 409, 192
420, 202, 147, 282, 172, 136, 462, 202
382, 173, 163, 364, 161, 111, 428, 191
341, 160, 157, 351, 152, 129, 436, 167
376, 172, 180, 354, 155, 127, 448, 184
362, 174, 168, 379, 166, 125, 443, 188
413, 218, 162, 397, 142, 108, 363, 188
462, 249, 137, 337, 141, 108, 333, 189
437, 247, 148, 322, 153, 95, 317, 171
411, 238, 138, 297, 140, 98, 271, 155
390, 255, 145, 244, 121, 93, 198, 140
341, 213, 149, 204, 107, 89, 196, 124
314, 165, 146, 164, 101, 88, 180, 112
323, 165, 138, 191, 94, 80, 241, 133
329, 170, 126, 207, 118, 90, 294, 136
359, 154, 144, 260, 130, 106, 363, 159
345, 170, 134, 282, 136, 112, 369, 164
345, 173, 129, 305, 146, 114, 403, 159
378, 178, 130, 322, 153, 112, 398, 151
395, 209, 124, 343, 148, 98, 381, 160
384, 220, 99, 320, 147, 98, 334, 134
399, 217, 139, 325, 146, 95, 348, 146
405, 218, 143, 327, 151, 96, 388, 188
368, 213, 140, 303, 134, 92, 384, 188
384, 188, 138, 260, 138, 101, 395, 187
376, 174, 133, 280, 136, 85, 401, 193
353, 164, 94, 260, 134, 84, 390, 182
336, 171, 94, 232, 114, 83, 311, 147
357, 164, 91, 227, 125, 86, 288, 150
293, 178, 103, 261, 118, 89, 320, 132
291, 190, 116, 276, 118, 97, 312, 122
308, 200, 127, 288, 119, 102, 308, 126
345, 194, 129, 298, 121, 100, 338, 132
324, 198, 140, 345, 146, 97, 380, 134
335, 213, 143, 333, 144, 85, 330, 144
352, 209, 134, 329, 156, 78, 337, 151
340, 209, 172, 340, 160, 83, 347, 150
323, 216, 192, 351, 162, 83, 340, 143
360, 217, 206, 382, 174, 91, 334, 139
366, 190, 200, 400, 173, 102, 349, 129
383, 169, 203, 377, 163, 106, 329, 126
396, 226, 174, 347, 158, 98, 313, 123
417, 222, 181, 403, 186, 100, 354, 163
404, 244, 162, 377, 170, 104, 382, 176
432, 255, 159, 353, 167, 103, 352, 180
426, 257, 156, 353, 162, 102, 382, 185
448, 198, 151, 387, 167, 102, 390, 194
424, 187, 132, 364, 172, 102, 389, 158
416, 212, 127, 355, 151, 97, 352, 151
425, 235, 134, 383, 170, 90, 360, 164
460, 241, 138, 380, 168, 96, 357, 166
422, 292, 133, 373, 186, 105, 412, 179
437, 298, 116, 369, 182, 108, 386, 212
452, 299, 129, 339, 190, 105, 386, 209
430, 268, 140, 350, 178, 106, 456, 217
406, 267, 156, 390, 213, 101, 451, 224
442, 264, 153, 370, 189, 92, 406, 210
455, 300, 148, 335, 175, 96, 434, 203
441, 278, 131, 333, 167, 94, 446, 205
424, 274, 108, 278, 156, 90, 366, 188
375, 264, 72, 221, 116, 84, 346, 173
345, 218, 71, 203, 115, 81, 329, 163
323, 159, 71, 189, 92, 71, 267, 147
327, 126, 94, 194, 97, 82, 270, 149
364, 131, 102, 209, 114, 91, 327, 159
402, 199, 106, 238, 121, 97, 328, 178
422, 211, 108, 295, 154, 109, 357, 195
408, 229, 113, 330, 153, 119, 386, 211
430, 266, 115, 345, 160, 116, 362, 215
436, 286, 122, 344, 153, 110, 377, 211
488, 257, 124, 318, 149, 104, 388, 216
504, 294, 152, 324, 133, 104, 534, 272
504, 300, 159, 331, 153, 99, 523, 254
504, 269, 156, 353, 178, 108, 541, 253
506, 254, 152, 372, 189, 120, 535, 274
469, 285, 149, 387, 191, 125, 547, 270
458, 237, 119, 357, 183, 119, 439, 237
438, 209, 109, 342, 174, 107, 429, 233
417, 210, 98, 305, 142, 91, 387, 223
409, 219, 92, 282, 135, 78, 328, 185
403, 175, 95, 292, 133, 104, 291, 184
411, 190, 92, 275, 130, 112, 275, 152
451, 191, 87, 282, 129, 126, 337, 167
467, 196, 147, 413, 195, 153, 448, 198
553, 229, 162, 424, 197, 174, 520, 268
565, 246, 158, 410, 199, 168, 536, 268
541, 251, 157, 417, 201, 159, 510, 259
536, 257, 164, 406, 208, 150, 471, 257
513, 254, 113, 285, 165, 129, 428, 237
391, 204, 105, 267, 159, 105, 350, 169
335, 210, 113, 251, 149, 91, 351, 149
321, 191, 118, 240, 143, 101, 346, 158
333, 177, 105, 210, 125, 101, 328, 164
335, 194, 109, 203, 101, 110, 276, 162
323, 195, 93, 235, 93, 116, 311, 152
357, 187, 89, 252, 97, 114, 379, 162
369, 240, 91, 255, 104, 113, 422, 163
320, 249, 106, 263, 108, 113, 437, 153
339, 241, 100, 260, 111, 101, 467, 156
367, 242, 107, 237, 123, 111, 467, 157
344, 231, 109, 253, 123, 113, 412, 157
328, 178, 106, 278, 135, 108, 401, 145
364, 182, 107, 307, 154, 112, 409, 155
359, 182, 113, 301, 152, 110, 411, 154
441, 201, 116, 344, 153, 89, 399, 158
432, 181, 121, 355, 174, 99, 395, 149
425, 181, 117, 364, 163, 100, 377, 162
388, 163, 114, 373, 163, 99, 355, 145
426, 166, 110, 369, 158, 107, 360, 154
303, 144, 107, 314, 155, 115, 408, 149
321, 146, 114, 343, 143, 128, 472, 174
380, 126, 112, 318, 140, 123, 479, 171
472, 130, 120, 313, 114, 118, 502, 192
474, 131, 128, 327, 128, 114, 503, 204
499, 123, 117, 355, 115, 105, 464, 198
516, 123, 103, 308, 117, 81, 417, 175
498, 135, 107, 359, 152, 86, 397, 169
471, 146, 89, 375, 155, 93, 438, 167
420, 138, 76, 362, 145, 87, 391, 135
408, 152, 92, 339, 149, 84, 439, 198
447, 152, 96, 336, 137, 84, 437, 216
451, 150, 155, 392, 140, 97, 495, 238
419, 145, 157, 362, 145, 94, 439, 232
472, 179, 158, 376, 158, 95, 446, 245
469, 186, 154, 391, 160, 99, 425, 210
438, 199, 157, 406, 171, 95, 496, 220
457, 212, 106, 301, 143, 79, 507, 232
453, 205, 118, 303, 141, 86, 512, 229
431, 183, 138, 287, 123, 86, 495, 219
449, 180, 140, 262, 122, 86, 527, 212
428, 167, 145, 231, 96, 88, 457, 182
394, 146, 150, 285, 110, 99, 386, 152
376, 180, 157, 307, 126, 90, 405, 146
343, 198, 139, 308, 130, 91, 475, 146
296, 217, 137, 306, 121, 91, 395, 142
274, 216, 123, 308, 126, 96, 369, 148
316, 228, 117, 320, 124, 89, 384, 142
319, 204, 90, 298, 116, 91, 360, 145
318, 184, 100, 309, 154, 97, 311, 140
385, 158, 95, 325, 158, 95, 322, 146
405, 153, 95, 319, 158, 89, 341, 143
365, 134, 88, 271, 156, 93, 319, 134
390, 129, 89, 272, 154, 98, 398, 130
430, 124, 78, 327, 130, 91, 393, 129
431, 120, 75, 334, 142, 94, 380, 125
440, 188, 80, 351, 151, 96, 367, 146
440, 218, 88, 367, 169, 92, 362, 166
440, 251, 91, 351, 166, 100, 334, 169
399, 277, 98, 325, 172, 108, 351, 181
367, 285, 104, 324, 180, 118, 374, 189
384, 254, 113, 350, 182, 118, 384, 194
410, 261, 117, 335, 164, 129, 405, 217
428, 237, 126, 379, 188, 121, 348, 231
525, 269, 125, 342, 178, 126, 318, 233
544, 279, 123, 341, 164, 122, 351, 234
518, 272, 111, 314, 153, 131, 340, 217
521, 250, 109, 325, 156, 122, 326, 177
518, 278, 129, 301, 124, 119, 325, 175
424, 225, 127, 308, 122, 106, 316, 154
415, 221, 131, 328, 119, 95, 276, 161
434, 217, 133, 316, 124, 87, 311, 175
424, 217, 131, 318, 125, 84, 292, 179
370, 182, 95, 293, 125, 101, 387, 166
370, 181, 89, 304, 119, 104, 387, 174
336, 166, 80, 273, 116, 110, 403, 179
320, 177, 93, 346, 145, 104, 374, 163
331, 180, 103, 388, 176, 112, 373, 169
367, 184, 106, 402, 175, 98, 266, 181
387, 202, 106, 392, 176, 95, 268, 178
424, 203, 112, 429, 185, 103, 229, 161
404, 203, 114, 414, 170, 98, 264, 167
398, 189, 95, 352, 125, 104, 272, 167
420, 192, 104, 332, 137, 118, 346, 185
489, 162, 108, 337, 135, 122, 455, 249
476, 167, 114, 318, 123, 109, 462, 260
483, 169, 96, 263, 112, 114, 443, 261
469, 180, 101, 274, 128, 97, 452, 256
430, 180, 89, 284, 107, 83, 438, 238
324, 180, 94, 287, 108, 76, 314, 167
349, 181, 79, 254, 111, 75, 316, 152
383, 174, 90, 308, 141, 77, 311, 160
386, 172, 96, 308, 133, 84, 313, 170
374, 149, 103, 312, 139, 79, 278, 160
388, 152, 100, 350, 149, 92, 275, 163
341, 131, 109, 422, 161, 105, 250, 147
288, 127, 112, 482, 145, 97, 270, 141
316, 117, 101, 484, 142, 93, 274, 129
311, 130, 97, 496, 148, 92, 271, 128
304, 142, 95, 481, 148, 84, 292, 142
288, 135, 97, 504, 156, 69, 328, 158
351, 163, 98, 460, 157, 91, 366, 161
316, 188, 100, 451, 157, 90, 347, 163
350, 188, 100, 446, 157, 94, 359, 176
397, 176, 105, 450, 174, 99, 335, 167
416, 180, 91, 345, 149, 101, 358, 161
400, 157, 85, 298, 138, 89, 338, 163
445, 176, 91, 363, 159, 94, 355, 176
420, 172, 122, 354, 181, 98, 351, 159
402, 178, 134, 393, 166, 102, 384, 162
406, 181, 144, 506, 217, 102, 354, 160
375, 186, 144, 522, 243, 96, 325, 162
330, 151, 147, 496, 235, 107, 342, 170
367, 156, 132, 521, 216, 102, 322, 171
335, 177, 126, 484, 227, 99, 376, 182
321, 183, 119, 372, 187, 102, 400, 185
350, 193, 124, 370, 149, 108, 427, 177
335, 199, 121, 351, 149, 90, 418, 155
311, 216, 115, 309, 155, 96, 488, 176
287, 212, 114, 307, 129, 98, 439, 156
291, 203, 118, 436, 149, 105, 423, 156
240, 195, 107, 427, 157, 107, 399, 153
362, 195, 114, 447, 159, 113, 454, 163
357, 170, 109, 452, 155, 107, 407, 150
382, 169, 114, 459, 167, 101, 419, 153
379, 169, 112, 348, 151, 98, 402, 151
399, 161, 114, 361, 152, 103, 427, 165
297, 153, 101, 330, 145, 107, 382, 162
341, 168, 110, 342, 138, 117, 359, 169
357, 164, 114, 354, 131, 116, 335, 186
355, 185, 108, 374, 135, 120, 350, 188
355, 193, 109, 336, 142, 113, 341, 184
397, 207, 167, 424, 155, 135, 309, 188
406, 206, 163, 419, 159, 129, 331, 198
418, 193, 158, 429, 171, 129, 339, 205
420, 181, 162, 405, 171, 122, 325, 203
428, 170, 165, 416, 159, 121, 302, 197
393, 160, 106, 366, 146, 90, 331, 185
418, 166, 133, 387, 164, 96, 300, 171
405, 163, 127, 372, 146, 93, 278, 147
408, 159, 129, 360, 141, 91, 283, 143
384, 163, 128, 371, 152, 91, 327, 164
467, 180, 145, 402, 202, 98, 360, 167
422, 183, 126, 371, 192, 114, 387, 156
419, 196, 131, 349, 195, 114, 417, 159
483, 218, 131, 351, 195, 116, 418, 170
497, 232, 129, 361, 190, 119, 401, 157
445, 219, 109, 283, 135, 125, 343, 156
461, 224, 128, 319, 130, 119, 307, 146
442, 218, 136, 355, 135, 118, 295, 145
392, 196, 129, 367, 125, 111, 308, 138
430, 198, 133, 326, 140, 114, 378, 157
398, 191, 141, 335, 142, 107, 374, 155
351, 164, 118, 303, 133, 93, 371, 160
396, 179, 121, 279, 139, 99, 354, 165
419, 181, 134, 320, 181, 108, 333, 169
365, 153, 133, 390, 168, 100, 337, 140
394, 145, 129, 391, 171, 94, 392, 146
436, 150, 131, 383, 173, 99, 400, 158
410, 129, 120, 368, 169, 93, 412, 160
367, 116, 128, 354, 156, 87, 425, 177
400, 114, 121, 281, 148, 94, 387, 174
393, 130, 134, 290, 144, 97, 343, 180
385, 131, 137, 306, 152, 100, 355, 181
406, 148, 144, 336, 151, 120, 375, 197
403, 148, 143, 321, 151, 122, 362, 176
379, 159, 156, 372, 162, 117, 321, 177
367, 166, 146, 389, 177, 115, 309, 172
390, 172, 150, 372, 176, 112, 349, 176
411, 176, 132, 345, 180, 88, 316, 155
435, 196, 117, 331, 156, 88, 371, 171
455, 209, 108, 369, 173, 93, 377, 180
458, 191, 132, 363, 154, 86, 476, 223
427, 188, 123, 359, 147, 86, 487, 217
367, 172, 128, 348, 132, 87, 476, 214
342, 152, 123, 337, 132, 80, 434, 196
335, 170, 126, 249, 98, 85, 510, 220
313, 172, 100, 215, 98, 85, 425, 175
315, 171, 97, 220, 110, 95, 414, 191
332, 162, 92, 316, 135, 100, 427, 198
369, 160, 96, 344, 134, 110, 445, 223
386, 125, 94, 350, 137, 101, 413, 203
391, 136, 93, 385, 160, 108, 424, 202
439, 128, 94, 381, 152, 91, 381, 198
465, 142, 124, 311, 131, 101, 384, 198
436, 149, 143, 317, 144, 98, 362, 174
386, 140, 158, 312, 142, 105, 280, 161
396, 133, 164, 252, 116, 100, 247, 161
346, 131, 169, 258, 112, 102, 282, 139
317, 128, 147, 256, 106, 89, 280, 127
319, 129, 135, 250, 103, 87, 293, 146
366, 139, 126, 254, 130, 77, 322, 169
370, 183, 118, 294, 132, 82, 396, 192
347, 194, 116, 294, 135, 81, 384, 195
402, 196, 129, 322, 137, 78, 409, 195
443, 198, 122, 346, 159, 84, 406, 185
402, 197, 104, 323, 149, 94, 444, 162
440, 159, 141, 329, 143, 94, 432, 192
458, 162, 151, 328, 144, 98, 426, 199
404, 169, 152, 332, 152, 100, 434, 203
414, 176, 158, 320, 119, 93, 558, 212
453, 196, 162, 315, 107, 105, 535, 228
446, 207, 132, 274, 110, 102, 535, 216
455, 204, 131, 287, 108, 95, 532, 213
489, 195, 118, 285, 108, 102, 509, 226
451, 192, 133, 300, 123, 105, 361, 216
506, 179, 136, 320, 133, 96, 359, 214
479, 189, 147, 364, 161, 95, 441, 188
458, 188, 146, 374, 162, 103, 491, 189
434, 186, 160, 370, 182, 104, 496, 176
435, 196, 144, 398, 180, 107, 511, 176
354, 194, 144, 408, 173, 101, 502, 165
427, 201, 144, 369, 149, 109, 387, 181
473, 224, 173, 386, 173, 111, 313, 192
467, 234, 164, 370, 143, 101, 284, 181
470, 223, 161, 278, 128, 97, 384, 202
502, 210, 151, 240, 125, 99, 366, 209
466, 185, 137, 231, 118, 110, 387, 189
428, 167, 85, 186, 111, 126, 398, 184
425, 182, 85, 218, 146, 126, 407, 183
419, 209, 93, 282, 156, 131, 342, 163
357, 207, 97, 302, 159, 127, 337, 150
329, 205, 115, 321, 162, 112, 351, 150
329, 201, 113, 319, 147, 85, 335, 146
316, 173, 107, 301, 114, 100, 474, 195
314, 137, 115, 318, 128, 95, 449, 202
387, 161, 160, 344, 166, 106, 470, 208
373, 157, 153, 336, 162, 104, 441, 202
430, 166, 158, 327, 163, 119, 447, 201
443, 168, 164, 348, 178, 111, 306, 148
477, 197, 159, 321, 172, 109, 359, 134
424, 200, 119, 282, 139, 95, 413, 151
427, 208, 113, 291, 141, 100, 412, 154
390, 204, 104, 299, 163, 97, 441, 157
378, 212, 104, 276, 145, 92, 436, 158
303, 185, 97, 246, 147, 88, 392, 156
300, 164, 102, 418, 150, 95, 371, 150
284, 151, 105, 451, 170, 101, 411, 170
259, 150, 106, 454, 148, 85, 410, 187
304, 169, 104, 471, 151, 99, 467, 200
361, 186, 121, 535, 168, 104, 474, 214
390, 183, 117, 418, 166, 101, 432, 200
435, 201, 115, 405, 159, 99, 481, 217
430, 195, 120, 401, 159, 108, 498, 195
391, 176, 112, 377, 160, 100, 475, 205
347, 163, 104, 282, 150, 114, 460, 198
409, 178, 112, 365, 153, 130, 461, 201
368, 161, 116, 344, 143, 122, 428, 172
351, 162, 107, 335, 136, 116, 460, 175
382, 183, 133, 380, 162, 120, 466, 183
408, 195, 128, 397, 149, 116, 491, 210
386, 223, 129, 367, 142, 106, 571, 223
394, 236, 123, 361, 140, 108, 529, 221
417, 234, 147, 407, 168, 113, 478, 231
397, 228, 137, 378, 150, 107, 452, 212
378, 216, 144, 361, 148, 93, 465, 185
365, 204, 132, 350, 158, 87, 411, 177
369, 191, 130, 344, 163, 96, 421, 177
363, 199, 118, 348, 188, 97, 437, 195
407, 200, 112, 336, 187, 99, 506, 209
429, 205, 100, 331, 187, 112, 541, 215
505, 212, 107, 312, 182, 115, 510, 221
530, 219, 154, 410, 208, 115, 521, 237
567, 213, 151, 430, 185, 107, 523, 219
549, 200, 157, 452, 191, 111, 447, 215
554, 193, 172, 498, 207, 113, 384, 201
501, 151, 166, 485, 212, 118, 452, 221
486, 145, 137, 408, 182, 131, 530, 226
444, 139, 143, 379, 173, 139, 521, 222
430, 143, 133, 371, 166, 139, 525, 237
439, 157, 107, 339, 142, 134, 519, 252
394, 174, 132, 344, 134, 134, 477, 241
429, 202, 135, 375, 154, 153, 432, 238
454, 240, 122, 341, 146, 153, 416, 236
472, 320, 143, 333, 144, 160, 413, 224
450, 338, 155, 312, 153, 166, 430, 228
437, 338, 141, 327, 149, 161, 441, 208
415, 330, 135, 285, 150, 152, 387, 210
414, 316, 145, 327, 153, 153, 385, 221
421, 239, 134, 359, 155, 147, 454, 239
418, 205, 126, 363, 153, 149, 462, 237
433, 200, 124, 341, 155, 152, 416, 237
417, 190, 114, 370, 138, 129, 397, 214
440, 187, 107, 353, 131, 134, 398, 192
410, 197, 90, 303, 123, 131, 358, 163
429, 194, 99, 284, 108, 114, 319, 145
422, 190, 99, 329, 100, 106, 341, 156
452, 190, 109, 357, 119, 133, 366, 198
434, 187, 106, 348, 119, 132, 346, 210
450, 167, 121, 392, 150, 152, 386, 238
462, 155, 108, 399, 170, 158, 409, 262
450, 155, 103, 372, 178, 159, 456, 269
407, 161, 127, 336, 175, 133, 513, 270
389, 193, 159, 352, 180, 135, 626, 311
374, 190, 149, 314, 155, 110, 581, 290
332, 197, 150, 336, 147, 110, 575, 279
418, 215, 154, 359, 143, 109, 567, 275
417, 212, 139, 354, 132, 119, 534, 257
439, 184, 99, 327, 129, 113, 449, 222
459, 187, 104, 311, 125, 119, 430, 221
463, 192, 120, 333, 121, 124, 406, 209
395, 185, 119, 314, 122, 126, 562, 246
398, 190, 112, 319, 124, 122, 545, 242
329, 186, 111, 322, 133, 120, 510, 225
306, 205, 111, 343, 142, 115, 560, 252
291, 204, 116, 319, 139, 109, 578, 254
271, 190, 137, 359, 154, 112, 395, 220
254, 184, 138, 343, 150, 104, 373, 221
279, 178, 139, 348, 142, 114, 380, 226
270, 154, 142, 330, 138, 113, 327, 198
253, 154, 124, 290, 134, 111, 295, 192
322, 167, 101, 250, 118, 104, 280, 214
367, 156, 93, 250, 123, 106, 359, 233
386, 145, 113, 248, 122, 92, 387, 238
394, 154, 123, 274, 119, 96, 412, 283
476, 184, 126, 280, 122, 93, 440, 285
497, 173, 126, 268, 127, 93, 444, 279
469, 194, 126, 286, 133, 100, 391, 256
454, 192, 113, 305, 132, 109, 375, 251
450, 190, 99, 310, 132, 112, 328, 199
381, 169, 100, 318, 142, 114, 341, 209
326, 202, 93, 298, 129, 115, 332, 188
350, 223, 101, 287, 122, 108, 314, 183
360, 229, 104, 304, 158, 94, 286, 170
363, 227, 98, 291, 161, 83, 370, 158
354, 244, 108, 312, 151, 87, 342, 136
340, 219, 126, 349, 159, 82, 342, 135
341, 177, 133, 370, 164, 91, 362, 167
351, 195, 139, 347, 130, 99, 378, 174
371, 213, 147, 336, 125, 121, 365, 174
377, 194, 140, 310, 127, 120, 410, 178
401, 199, 144, 331, 133, 131, 415, 191
416, 214, 154, 323, 155, 143, 481, 207
399, 191, 142, 339, 157, 144, 473, 202
371, 168, 141, 366, 160, 128, 466, 202
380, 157, 139, 374, 162, 126, 408, 192
363, 148, 123, 338, 155, 117, 408, 174
311, 142, 115, 357, 148, 114, 352, 136
311, 158, 114, 328, 147, 108, 437, 143
339, 165, 111, 293, 148, 106, 509, 178
320, 176, 116, 329, 188, 102, 531, 188
305, 180, 118, 309, 183, 112, 528, 192
338, 201, 115, 295, 163, 93, 501, 188
356, 191, 112, 318, 181, 124, 555, 206
352, 179, 116, 326, 192, 128, 496, 202
354, 165, 124, 315, 176, 134, 495, 205
451, 183, 125, 334, 179, 134, 577, 218
467, 156, 118, 312, 185, 155, 620, 223
464, 164, 131, 365, 176, 136, 522, 253
499, 186, 133, 408, 188, 151, 613, 280
516, 195, 120, 394, 176, 165, 606, 288
467, 186, 128, 406, 190, 163, 552, 296
458, 201, 128, 426, 189, 162, 509, 298
442, 195, 124, 386, 180, 160, 556, 255
406, 189, 116, 355, 153, 140, 411, 202
411, 189, 120, 371, 151, 128, 403, 175
426, 176, 107, 369, 160, 121, 372, 140
408, 148, 100, 341, 158, 98, 369, 136
405, 143, 103, 318, 165, 100, 346, 141
389, 127, 107, 294, 178, 118, 432, 181
354, 113, 111, 275, 173, 108, 420, 182
402, 134, 110, 296, 145, 108, 434, 214
392, 160, 110, 281, 143, 116, 454, 221
434, 188, 130, 305, 188, 120, 532, 283
447, 220, 127, 316, 180, 112, 469, 267
455, 218, 132, 350, 187, 117, 551, 295
405, 212, 130, 320, 192, 116, 568, 301
420, 210, 137, 342, 204, 106, 573, 307
409, 190, 113, 303, 151, 93, 458, 244
420, 157, 116, 298, 150, 90, 474, 252
418, 169, 102, 366, 148, 83, 442, 233
409, 179, 115, 403, 182, 98, 489, 214
397, 175, 106, 402, 169, 98, 477, 186
383, 189, 103, 401, 173, 114, 485, 193
405, 190, 113, 434, 181, 118, 460, 183
391, 185, 135, 391, 183, 113, 488, 169
397, 163, 138, 337, 144, 106, 402, 143
457, 156, 147, 338, 146, 114, 450, 186
446, 133, 153, 380, 156, 108, 436, 189
385, 126, 151, 345, 174, 106, 476, 189
419, 137, 135, 274, 170, 110, 413, 194
364, 152, 121, 276, 170, 104, 403, 188
307, 140, 113, 281, 175, 102, 335, 149
366, 149, 109, 226, 166, 97, 332, 162
374, 179, 129, 256, 176, 101, 397, 191
383, 182, 122, 293, 171, 104, 419, 201
408, 171, 125, 287, 176, 106, 501, 208
382, 181, 137, 368, 171, 103, 500, 214
340, 180, 130, 374, 171, 111, 517, 209
364, 154, 98, 357, 144, 99, 536, 198
343, 146, 103, 354, 137, 92, 515, 202
437, 185, 120, 384, 161, 101, 447, 204
506, 201, 112, 302, 166, 124, 485, 228
507, 209, 112, 337, 164, 114, 477, 231
507, 235, 114, 355, 158, 114, 359, 217
580, 263, 119, 383, 173, 116, 349, 209
498, 242, 116, 376, 155, 107, 353, 201
446, 224, 117, 378, 151, 86, 331, 172
487, 245, 127, 376, 159, 118, 384, 190
473, 222, 127, 369, 172, 121, 454, 197
391, 215, 126, 343, 167, 123, 471, 215
429, 210, 115, 331, 167, 134, 468, 222
501, 216, 105, 330, 168, 131, 454, 225
454, 193, 103, 306, 175, 106, 454, 199
468, 196, 104, 298, 153, 107, 379, 182
442, 163, 107, 281, 143, 102, 347, 155
480, 200, 108, 313, 133, 88, 368, 146
407, 201, 111, 309, 132, 100, 370, 134
439, 228, 100, 287, 109, 100, 384, 187
438, 228, 107, 273, 109, 97, 424, 204
470, 222, 94, 264, 125, 115, 431, 197
453, 215, 97, 282, 125, 117, 401, 197
440, 215, 95, 273, 117, 120, 439, 211
411, 170, 105, 287, 134, 118, 395, 179
416, 166, 92, 277, 145, 121, 407, 169
370, 175, 119, 319, 155, 103, 423, 170
346, 157, 126, 329, 152, 102, 439, 170
360, 158, 127, 345, 157, 92, 417, 157
362, 160, 124, 339, 142, 92, 394, 136
352, 159, 136, 358, 140, 100, 346, 120
368, 170, 125, 340, 134, 112, 390, 138
362, 165, 110, 306, 143, 132, 439, 161
341, 155, 117, 290, 143, 136, 418, 171
367, 182, 134, 308, 155, 142, 432, 198
366, 187, 140, 338, 181, 136, 526, 232
368, 184, 134, 350, 167, 133, 508, 233
340, 196, 154, 413, 196, 126, 471, 221
375, 207, 153, 429, 197, 113, 468, 225
366, 188, 137, 411, 194, 108, 456, 200
366, 182, 122, 414, 171, 103, 366, 170
349, 173, 124, 428, 182, 108, 384, 159
377, 162, 118, 340, 168, 119, 377, 160
341, 167, 119, 326, 162, 123, 395, 139
353, 170, 120, 335, 161, 130, 468, 164
351, 176, 119, 302, 168, 131, 481, 163
420, 172, 121, 256, 154, 139, 437, 162
437, 168, 113, 335, 146, 125, 438, 151
499, 170, 124, 324, 152, 131, 447, 171
541, 182, 124, 318, 149, 132, 361, 160
571, 181, 136, 324, 147, 153, 370, 179
539, 190, 133, 316, 147, 144, 406, 189
555, 196, 124, 278, 136, 146, 423, 199
542, 205, 109, 318, 134, 139, 433, 225
474, 206, 111, 345, 141, 130, 439, 227
420, 199, 105, 375, 131, 114, 429, 218
466, 190, 103, 404, 136, 102, 400, 215
393, 183, 108, 386, 134, 95, 439, 221
413, 167, 118, 389, 163, 118, 399, 200
430, 140, 115, 374, 161, 134, 407, 191
545, 172, 117, 357, 163, 141, 503, 225
557, 183, 138, 334, 185, 154, 590, 273
624, 188, 140, 388, 191, 155, 563, 275
581, 184, 131, 382, 173, 153, 609, 274
571, 208, 154, 450, 176, 152, 637, 297
583, 210, 146, 452, 171, 139, 545, 274
556, 234, 129, 444, 149, 125, 439, 231
512, 242, 129, 402, 141, 126, 425, 229
560, 253, 136, 389, 130, 126, 439, 239
550, 241, 126, 327, 133, 118, 396, 213
468, 268, 122, 320, 130, 118, 390, 214
444, 250, 119, 320, 124, 127, 383, 198
413, 237, 115, 299, 115, 121, 368, 182
326, 216, 115, 297, 120, 106, 266, 142
335, 206, 106, 312, 110, 93, 252, 153
287, 160, 106, 276, 112, 106, 259, 164
284, 138, 106, 265, 112, 109, 259, 164
328, 132, 111, 268, 125, 121, 326, 190
329, 150, 111, 262, 119, 123, 384, 190
324, 179, 115, 228, 115, 130, 391, 178
339, 155, 118, 236, 115, 131, 384, 155
314, 161, 116, 247, 114, 121, 394, 162
272, 172, 122, 279, 122, 123, 397, 132
303, 181, 125, 287, 146, 132, 455, 168
339, 158, 120, 296, 163, 155, 454, 181
316, 158, 122, 328, 178, 158, 488, 189
386, 168, 132, 470, 197, 165, 522, 207
415, 165, 127, 456, 190, 167, 491, 213
458, 171, 120, 465, 174, 157, 475, 194
479, 191, 142, 475, 173, 132, 523, 228
479, 209, 155, 461, 168, 114, 498, 235
427, 214, 167, 372, 174, 113, 470, 215
429, 218, 166, 369, 186, 101, 482, 219
413, 206, 167, 354, 188, 98, 434, 223
355, 216, 141, 329, 170, 103, 353, 172
352, 208, 133, 351, 178, 105, 333, 156
455, 199, 107, 315, 151, 96, 303, 162
448, 220, 105, 331, 136, 103, 341, 160
406, 209, 93, 339, 135, 106, 305, 141
455, 194, 122, 381, 182, 125, 349, 168
478, 182, 117, 355, 178, 136, 368, 183
386, 187, 117, 331, 179, 141, 377, 179
358, 159, 117, 337, 177, 138, 317, 166
357, 185, 132, 392, 211, 155, 375, 181
373, 183, 107, 349, 176, 134, 372, 168
354, 204, 120, 372, 170, 127, 354, 147
347, 192, 131, 370, 166, 121, 410, 150
434, 199, 157, 351, 164, 142, 431, 160
457, 190, 150, 295, 147, 122, 382, 164
491, 200, 154, 296, 159, 140, 375, 167
485, 185, 154, 317, 163, 142, 426, 194
485, 196, 152, 313, 159, 146, 392, 190
405, 211, 124, 308, 157, 122, 372, 179
405, 209, 121, 312, 136, 121, 398, 193
337, 204, 123, 330, 116, 111, 407, 211
322, 197, 111, 309, 95, 105, 388, 189
337, 203, 104, 349, 155, 114, 404, 210
359, 215, 99, 382, 171, 123, 409, 215
322, 213, 97, 378, 166, 120, 427, 201
304, 210, 83, 375, 168, 112, 400, 183
323, 225, 87, 342, 172, 114, 391, 184
317, 208, 110, 369, 142, 104, 352, 165
341, 200, 143, 359, 136, 91, 364, 172
382, 202, 146, 389, 172, 102, 307, 161
381, 187, 147, 373, 180, 106, 307, 150
390, 181, 139, 367, 178, 108, 392, 184
419, 188, 124, 333, 166, 113, 429, 184
413, 167, 120, 314, 163, 112, 443, 194
401, 159, 126, 263, 126, 109, 455, 209
452, 171, 133, 280, 136, 105, 464, 207
461, 162, 141, 324, 137, 119, 409, 190
429, 178, 138, 327, 135, 108, 372, 185
436, 170, 110, 342, 131, 113, 343, 173
422, 166, 96, 337, 148, 114, 351, 169
372, 154, 97, 317, 126, 123, 478, 209
377, 160, 108, 335, 146, 110, 496, 211
384, 157, 117, 355, 168, 112, 510, 209
355, 160, 130, 331, 170, 140, 630, 254
355, 178, 134, 348, 160, 153, 618, 243
391, 185, 128, 392, 185, 167, 535, 235
428, 186, 112, 371, 167, 164, 525, 275
443, 176, 109, 343, 160, 175, 531, 280
442, 170, 91, 358, 169, 155, 386, 238
447, 153, 98, 331, 163, 152, 440, 247
403, 161, 95, 293, 140, 134, 437, 228
328, 163, 99, 303, 145, 137, 407, 170
344, 193, 89, 283, 132, 128, 468, 183
344, 204, 108, 297, 118, 120, 444, 184
353, 214, 96, 324, 136, 102, 419, 183
408, 259, 130, 319, 147, 110, 392, 205
413, 261, 127, 280, 142, 111, 389, 200
383, 236, 128, 292, 149, 108, 328, 192
395, 240, 133, 314, 163, 119, 359, 200
394, 241, 133, 325, 155, 122, 311, 195
367, 172, 104, 322, 137, 120, 339, 170
419, 159, 112, 320, 139, 136, 348, 177
442, 162, 120, 350, 143, 132, 334, 177
426, 143, 98, 327, 121, 128, 325, 166
403, 123, 106, 302, 119, 128, 342, 168
402, 133, 109, 335, 143, 130, 364, 193
393, 132, 118, 346, 154, 118, 349, 193
371, 145, 149, 322, 185, 132, 501, 226
400, 150, 162, 299, 199, 128, 504, 241
397, 170, 156, 333, 195, 136, 506, 235
385, 190, 157, 340, 208, 148, 501, 214
351, 193, 160, 366, 209, 140, 540, 214
373, 188, 129, 365, 175, 129, 435, 172
387, 190, 115, 376, 165, 144, 426, 151
447, 193, 139, 348, 162, 137, 411, 151
431, 242, 148, 319, 135, 114, 463, 182
435, 247, 139, 374, 127, 116, 416, 170
478, 250, 135, 393, 131, 116, 370, 172
447, 251, 133, 374, 133, 99, 373, 187
473, 260, 122, 387, 146, 104, 393, 199
485, 210, 117, 378, 140, 102, 304, 167
505, 227, 116, 339, 170, 101, 314, 169
458, 247, 115, 334, 161, 104, 306, 168
460, 247, 120, 374, 167, 127, 328, 155
384, 225, 116, 351, 167, 118, 304, 139
369, 212, 106, 367, 195, 128, 291, 147
312, 217, 120, 338, 174, 138, 297, 158
278, 190, 123, 317, 174, 134, 316, 157
326, 189, 122, 264, 164, 122, 336, 168
333, 199, 138, 296, 186, 123, 383, 212
357, 200, 144, 298, 161, 115, 412, 213
423, 182, 138, 297, 164, 104, 511, 228
493, 188, 149, 318, 177, 103, 538, 271
487, 187, 146, 331, 181, 111, 519, 264
489, 168, 122, 311, 152, 111, 501, 230
541, 181, 127, 310, 170, 113, 549, 242
508, 164, 129, 320, 166, 111, 509, 233
441, 152, 119, 321, 152, 127, 480, 186
405, 158, 127, 348, 151, 119, 489, 202
434, 177, 138, 361, 157, 114, 498, 207
378, 168, 128, 358, 137, 112, 454, 229
398, 175, 112, 341, 122, 110, 381, 216
402, 183, 113, 307, 121, 92, 371, 213
421, 183, 116, 310, 147, 108, 332, 199
400, 171, 105, 281, 139, 124, 302, 192
398, 165, 105, 284, 130, 121, 247, 147
366, 151, 110, 283, 132, 122, 251, 137
388, 131, 123, 296, 142, 126, 275, 141
364, 108, 121, 275, 122, 112, 307, 135
326, 97, 118, 282, 123, 100, 323, 142
307, 141, 115, 269, 121, 99, 381, 143
313, 152, 120, 264, 119, 99, 412, 168
300, 161, 114, 361, 118, 100, 412, 165
377, 162, 113, 351, 103, 96, 387, 167
401, 170, 119, 361, 104, 97, 401, 178
386, 149, 118, 371, 120, 103, 362, 178
401, 175, 124, 429, 186, 104, 338, 184
417, 186, 130, 375, 234, 123, 358, 191
351, 198, 137, 384, 238, 121, 374, 191
340, 204, 142, 418, 242, 123, 357, 187
328, 197, 162, 452, 263, 129, 363, 220
351, 182, 154, 402, 225, 129, 365, 199
323, 179, 142, 392, 172, 104, 326, 207
356, 173, 133, 400, 168, 105, 306, 210
363, 162, 123, 352, 162, 119, 372, 222
391, 169, 96, 355, 128, 113, 441, 186
427, 155, 126, 386, 140, 142, 486, 232
428, 161, 137, 360, 150, 149, 497, 231
428, 215, 138, 334, 154, 156, 539, 250
446, 217, 151, 358, 155, 145, 532, 245
418, 218, 168, 398, 159, 145, 473, 238
389, 227, 152, 419, 158, 123, 426, 202
470, 221, 153, 421, 149, 121, 510, 210
470, 172, 157, 456, 167, 112, 491, 189
440, 181, 150, 464, 170, 111, 435, 173
487, 174, 132, 417, 207, 142, 456, 201
512, 167, 121, 350, 198, 143, 513, 217
440, 163, 140, 457, 215, 140, 448, 193
412, 163, 137, 448, 198, 155, 436, 182
436, 185, 150, 436, 204, 159, 464, 190
439, 211, 155, 427, 158, 128, 432, 173
364, 212, 158, 446, 172, 124, 346, 154
353, 205, 130, 355, 145, 118, 330, 160
405, 194, 125, 372, 151, 121, 321, 173
391, 171, 113, 388, 138, 110, 344, 176
341, 143, 111, 359, 145, 112, 358, 173
346, 146, 111, 347, 124, 113, 361, 176
349, 177, 112, 318, 129, 125, 317, 174
360, 193, 112, 263, 142, 118, 337, 190
359, 192, 104, 240, 142, 127, 345, 199
360, 187, 97, 328, 157, 130, 358, 208
351, 184, 88, 332, 157, 122, 364, 192
359, 163, 98, 356, 157, 133, 375, 201
320, 151, 93, 345, 138, 137, 397, 214
314, 157, 97, 377, 144, 147, 377, 202
292, 153, 103, 352, 151, 152, 410, 197
287, 159, 110, 344, 160, 153, 417, 197
384, 182, 95, 333, 164, 147, 449, 197
414, 191, 105, 363, 167, 135, 457, 170
429, 196, 107, 341, 156, 115, 475, 163
471, 203, 98, 331, 129, 106, 465, 173
470, 192, 108, 330, 121, 113, 521, 212
419, 168, 104, 319, 113, 99, 493, 200
379, 160, 94, 332, 119, 98, 453, 198
375, 145, 91, 313, 129, 108, 413, 196
321, 140, 92, 263, 122, 117, 389, 177
322, 150, 90, 313, 126, 118, 335, 143
354, 209, 107, 341, 120, 127, 353, 143
368, 224, 123, 345, 124, 125, 342, 128
338, 230, 134, 346, 122, 132, 319, 143
373, 232, 149, 408, 156, 123, 453, 192
389, 226, 143, 375, 153, 122, 427, 185
